Wed Nov 23 18:47:16 2022

Number of Points = 2200
Depth (nm)	Load (µN)	Time (s)	Depth (V)	Load (V)
-1.226288	1.873310	0.000000	0.007648	1.037662
0.000000	7.964702	0.005005	0.007416	1.046894
1.553583	17.049941	0.010009	0.007122	1.060371
3.172794	27.683683	0.015014	0.006816	1.075829
4.379313	38.806178	0.020019	0.006587	1.091520
5.353800	49.987097	0.025024	0.006401	1.106952
6.220510	61.148433	0.030028	0.006236	1.122093
6.855911	72.339889	0.035033	0.006114	1.136961
7.418141	83.465737	0.040038	0.006005	1.151519
8.138632	94.575129	0.045043	0.005867	1.165947
8.664322	105.717055	0.050047	0.005766	1.180149
9.030889	116.868114	0.055052	0.005694	1.194122
9.568849	127.944190	0.060057	0.005591	1.207918
10.117096	139.045625	0.065061	0.005485	1.221592
10.481689	150.160701	0.070066	0.005414	1.235052
10.870187	161.286089	0.075071	0.005338	1.248388
11.189661	172.377439	0.080076	0.005276	1.261514
11.638718	183.442323	0.085080	0.005189	1.274529
11.922052	194.571780	0.090085	0.005133	1.287416
12.278625	205.672342	0.095090	0.005063	1.300173
12.459891	216.779029	0.100094	0.005026	1.312742
12.748995	227.810005	0.105099	0.004969	1.325150
13.405950	238.822343	0.110104	0.004843	1.337570
13.836925	249.925402	0.115109	0.004760	1.349884
14.190596	261.028735	0.120113	0.004691	1.362057
14.663053	272.094124	0.125118	0.004599	1.374127
14.927769	283.181240	0.130123	0.004547	1.386036
15.433302	294.224344	0.135128	0.004449	1.397887
15.865291	305.296651	0.140132	0.004365	1.409642
16.084750	316.406314	0.145137	0.004321	1.421258
16.429010	327.452804	0.150142	0.004254	1.432762
16.666931	338.531286	0.155146	0.004207	1.444167
29.546902	346.480969	0.160151	0.001788	1.456927
39.489602	359.389289	0.165156	-0.000081	1.473460
40.252264	371.490743	0.170161	-0.000227	1.485744
41.193957	382.691236	0.175165	-0.000407	1.497106
41.959161	393.752948	0.180170	-0.000553	1.508186
42.721483	404.839176	0.185175	-0.000699	1.519207
43.646661	415.859209	0.190180	-0.000875	1.530141
44.641422	426.920686	0.195184	-0.001064	1.541060
45.531492	437.986615	0.200189	-0.001234	1.551870
46.826320	448.939112	0.205194	-0.001480	1.562634
48.069355	460.029954	0.210198	-0.001716	1.573436
49.205827	471.098783	0.215203	-0.001932	1.584108
50.401561	482.156705	0.220208	-0.002159	1.594718
51.196116	493.268196	0.225213	-0.002311	1.605174
51.889782	504.351800	0.230217	-0.002444	1.615505
52.426906	515.413350	0.235222	-0.002547	1.625699
53.150679	526.436614	0.240227	-0.002686	1.635855
53.785772	537.480183	0.245232	-0.002808	1.645937
54.643278	548.493920	0.250236	-0.002971	1.656002
55.266769	559.593806	0.255241	-0.003091	1.666008
55.855345	570.633324	0.260246	-0.003204	1.675890
57.025522	581.596128	0.265250	-0.003426	1.685827
57.869557	592.669715	0.270255	-0.003587	1.695701
58.930912	603.712817	0.275260	-0.003789	1.705557
59.677489	614.798848	0.280265	-0.003932	1.715297
60.133886	625.879302	0.285269	-0.004021	1.724891
60.874559	636.869245	0.290274	-0.004162	1.734439
61.352360	647.975319	0.295279	-0.004255	1.743954
61.996255	658.980580	0.300283	-0.004378	1.753382
62.785488	669.992034	0.305288	-0.004529	1.762807
63.553310	681.052781	0.310293	-0.004676	1.772216
64.175151	692.120456	0.315298	-0.004795	1.781539
64.733604	703.151316	0.320302	-0.004903	1.790764
65.340040	714.190527	0.325307	-0.005019	1.799962
65.908964	725.235281	0.330312	-0.005129	1.809107
66.733579	736.230732	0.335317	-0.005286	1.818238
67.485125	747.294876	0.340321	-0.005430	1.827358
67.958932	758.370900	0.345326	-0.005522	1.836364
68.332669	769.405746	0.350331	-0.005595	1.845265
68.885486	780.432648	0.355335	-0.005701	1.854167
69.494209	791.477315	0.360340	-0.005818	1.863055
70.050428	802.499500	0.365345	-0.005925	1.871869
70.860465	813.494312	0.370350	-0.006080	1.880689
71.664356	824.519421	0.375354	-0.006233	1.889489
72.346773	835.612367	0.380359	-0.006364	1.898268
73.166212	846.582395	0.385364	-0.006521	1.906948
73.898110	857.668888	0.390369	-0.006661	1.915654
74.419105	868.719128	0.395373	-0.006761	1.924237
75.125820	879.730406	0.400378	-0.006897	1.932801
75.599755	890.791555	0.405383	-0.006988	1.941304
76.142694	901.805145	0.410387	-0.007093	1.949752
76.800178	912.830159	0.415392	-0.007219	1.958201
77.401240	923.878727	0.420397	-0.007334	1.966617
78.325565	934.855687	0.425402	-0.007511	1.975026
79.387360	945.880181	0.430406	-0.007713	1.983469
79.994688	956.970032	0.435411	-0.007829	1.991809
80.509980	968.019531	0.440416	-0.007929	2.000061
81.165963	979.044684	0.445421	-0.008054	2.008297
81.731591	990.080574	0.450425	-0.008163	2.016484
82.185512	1001.114255	0.455430	-0.008251	2.024608
83.029369	1012.083347	0.460435	-0.008412	2.032749
83.863475	1023.167919	0.465439	-0.008572	2.040938
84.274957	1034.230277	0.470444	-0.008652	2.048975
84.796182	1045.243291	0.475449	-0.008752	2.056971
85.339886	1056.275590	0.480454	-0.008857	2.064956
86.036587	1067.280839	0.485458	-0.008990	2.072927
86.855340	1078.300751	0.490463	-0.009147	2.080908
87.544149	1089.361778	0.495468	-0.009279	2.088855
88.190049	1100.370885	0.500472	-0.009403	2.096725
88.713606	1111.432701	0.505477	-0.009503	2.104573
88.989092	1122.487274	0.510482	-0.009558	2.112329
89.678878	1133.470758	0.515487	-0.009690	2.120104
90.280016	1144.478654	0.520491	-0.009806	2.127846
91.390027	1155.474772	0.525496	-0.010017	2.135671
92.054760	1166.545036	0.530501	-0.010144	2.143414
92.485596	1177.625039	0.535506	-0.010228	2.151081
93.079440	1188.617105	0.540510	-0.010342	2.158699
93.762553	1199.641246	0.545515	-0.010473	2.166332
94.464420	1210.656594	0.550520	-0.010607	2.173936
94.990063	1221.721161	0.555524	-0.010709	2.181507
95.767903	1232.688259	0.560529	-0.010857	2.189043
96.423150	1243.753419	0.565534	-0.010983	2.196590
97.014410	1254.788338	0.570539	-0.011097	2.204077
97.666712	1265.787835	0.575543	-0.011222	2.211529
98.404696	1276.843292	0.580548	-0.011363	2.219011
99.033239	1287.853029	0.585553	-0.011484	2.226414
99.543916	1298.898472	0.590558	-0.011582	2.233789
100.166335	1309.904448	0.595562	-0.011702	2.241139
100.996524	1320.935901	0.600567	-0.011860	2.248526
101.394026	1332.032313	0.605572	-0.011937	2.255837
101.623215	1343.009962	0.610576	-0.011983	2.263010
102.349644	1353.995783	0.615581	-0.012122	2.270274
102.977272	1365.058783	0.620586	-0.012243	2.277542
103.405864	1376.093270	0.625591	-0.012326	2.284727
104.207382	1387.062736	0.630595	-0.012479	2.291926
104.859646	1398.123150	0.635600	-0.012604	2.299129
105.562337	1409.120280	0.640605	-0.012739	2.306280
106.008105	1420.210091	0.645610	-0.012825	2.313413
106.328924	1431.210612	0.650614	-0.012888	2.320441
107.037663	1442.215557	0.655619	-0.013024	2.327531
107.581930	1453.268772	0.660624	-0.013129	2.334596
108.098094	1464.288624	0.665628	-0.013228	2.341613
109.273857	1475.187636	0.670633	-0.013451	2.348669
110.192171	1486.312124	0.675638	-0.013627	2.355792
110.558525	1497.386057	0.680643	-0.013698	2.362747
111.105034	1508.366565	0.685647	-0.013803	2.369662
112.040292	1519.337219	0.690652	-0.013981	2.376629
112.907891	1530.408527	0.695657	-0.014147	2.383623
113.253984	1541.469687	0.700661	-0.014215	2.390486
113.712326	1552.472348	0.705666	-0.014303	2.397315
114.379141	1563.499198	0.710671	-0.014431	2.404181
115.055624	1574.493541	0.715676	-0.014561	2.411010
115.515340	1585.553425	0.720680	-0.014650	2.417815
116.224622	1596.550384	0.725685	-0.014786	2.424613
116.804056	1607.579901	0.730690	-0.014897	2.431386
117.449579	1618.612135	0.735695	-0.015021	2.438154
117.908323	1629.645204	0.740699	-0.015110	2.444867
118.541695	1640.645143	0.745704	-0.015231	2.451576
119.316914	1651.651032	0.750709	-0.015380	2.458297
120.144691	1662.668160	0.755713	-0.015538	2.465017
120.881696	1673.716172	0.760718	-0.015679	2.471719
121.440402	1684.762543	0.765723	-0.015786	2.478367
121.805179	1695.790300	0.770728	-0.015857	2.484950
122.440285	1706.801580	0.775732	-0.015979	2.491556
122.772581	1717.832313	0.780737	-0.016044	2.498099
123.293601	1728.850656	0.785742	-0.016145	2.504653
123.896993	1739.845144	0.790747	-0.016261	2.511191
124.284846	1750.929363	0.795751	-0.016336	2.517724
124.606300	1761.917079	0.800756	-0.016399	2.524171
125.152772	1772.944660	0.805761	-0.016505	2.530667
125.584998	1783.943960	0.810765	-0.016589	2.537109
126.226902	1794.974834	0.815770	-0.016712	2.543591
126.985012	1805.962760	0.820775	-0.016857	2.550053
127.389213	1817.055874	0.825780	-0.016935	2.556494
127.768265	1828.042562	0.830784	-0.017009	2.562853
128.470391	1839.054646	0.835789	-0.017144	2.569270
129.093902	1850.129303	0.840794	-0.017263	2.575691
129.615826	1861.118480	0.845799	-0.017364	2.582030
130.021803	1872.135646	0.850803	-0.017443	2.588348
130.488921	1883.161515	0.855808	-0.017533	2.594666
130.949865	1894.172266	0.860813	-0.017622	2.600959
131.349793	1905.208182	0.865817	-0.017700	2.607240
131.930561	1916.212586	0.870822	-0.017812	2.613520
132.408005	1927.224790	0.875827	-0.017904	2.619771
133.237688	1938.195697	0.880832	-0.018063	2.626047
133.784710	1949.314429	0.885836	-0.018168	2.632339
134.100773	1960.304412	0.890841	-0.018230	2.638504
134.784240	1971.290901	0.895846	-0.018361	2.644718
135.569578	1982.316651	0.900850	-0.018511	2.650956
136.027913	1993.388697	0.905855	-0.018600	2.657148
136.605172	2004.372220	0.910860	-0.018711	2.663297
137.133116	2015.394126	0.915865	-0.018813	2.669444
137.898824	2026.391862	0.920869	-0.018959	2.675605
138.262490	2037.473550	0.925874	-0.019030	2.681728
138.776251	2048.428146	0.930879	-0.019129	2.687793
139.361827	2059.472156	0.935884	-0.019242	2.693906
139.416269	2070.523892	0.940888	-0.019255	2.699918
139.841537	2081.506391	0.945893	-0.019337	2.705942
140.123592	2092.533634	0.950898	-0.019393	2.711952
140.929283	2103.511722	0.955902	-0.019547	2.718012
141.644165	2114.540443	0.960907	-0.019684	2.724069
142.028640	2125.608903	0.965912	-0.019759	2.730079
142.345668	2136.616123	0.970917	-0.019821	2.736031
142.744394	2147.641366	0.975921	-0.019898	2.741993
143.257862	2158.615305	0.980926	-0.019997	2.747935
143.889246	2169.664172	0.985931	-0.020119	2.753922
144.030266	2180.696050	0.990936	-0.020148	2.759806
144.679115	2191.694844	0.995940	-0.020272	2.765744
145.142778	2202.752908	1.000945	-0.020362	2.771670
145.310758	2213.754622	1.005950	-0.020396	2.777505
145.900108	2224.726596	1.010954	-0.020510	2.783381
146.213454	2235.810271	1.015959	-0.020571	2.789258
146.765277	2246.792829	1.020964	-0.020677	2.795108
147.588971	2257.815442	1.025969	-0.020835	2.801011
147.779770	2268.851941	1.030973	-0.020873	2.806806
148.400897	2279.876836	1.035978	-0.020992	2.812653
148.655531	2290.889486	1.040983	-0.021043	2.818422
149.218649	2301.881806	1.045988	-0.021151	2.824218
149.594677	2312.943250	1.050992	-0.021225	2.830007
149.939503	2323.940723	1.055997	-0.021292	2.835747
150.460638	2334.945793	1.061002	-0.021393	2.841507
151.176646	2345.972548	1.066006	-0.021530	2.847298
151.718408	2356.965044	1.071011	-0.021634	2.853031
152.140224	2368.031287	1.076016	-0.021716	2.858771
152.550664	2379.030950	1.081021	-0.021796	2.864464
153.040426	2390.066532	1.086025	-0.021890	2.870177
153.184245	2401.089964	1.091030	-0.021920	2.875817
153.770242	2412.100828	1.096035	-0.022033	2.881509
154.121597	2423.115025	1.101039	-0.022101	2.887155
154.837718	2434.110349	1.106044	-0.022238	2.892837
155.234153	2445.153089	1.111049	-0.022316	2.898482
155.688565	2456.174081	1.116054	-0.022404	2.904113
156.005521	2467.191380	1.121058	-0.022466	2.909711
156.572612	2478.197414	1.126063	-0.022575	2.915331
157.171070	2489.212044	1.131068	-0.022690	2.920948
157.898279	2500.236803	1.136073	-0.022829	2.926580
158.088120	2511.284683	1.141077	-0.022867	2.932130
158.752140	2522.252710	1.146082	-0.022995	2.937702
159.205384	2533.281904	1.151087	-0.023083	2.943262
159.707037	2544.329730	1.156091	-0.023179	2.948827
160.235176	2555.331749	1.161096	-0.023281	2.954364
160.659449	2566.368815	1.166101	-0.023364	2.959891
160.877664	2577.388200	1.171106	-0.023407	2.965369
161.303564	2588.413545	1.176110	-0.023490	2.970870
161.660255	2599.412808	1.181115	-0.023560	2.976338
162.198165	2610.418058	1.186120	-0.023663	2.981825
162.641014	2621.444196	1.191125	-0.023749	2.987299
163.157503	2632.449083	1.196129	-0.023849	2.992763
163.715449	2643.479451	1.201134	-0.023956	2.998235
164.196459	2654.498648	1.206139	-0.024049	3.003680
164.548072	2665.523995	1.211143	-0.024118	3.009100
165.110745	2676.528117	1.216148	-0.024226	3.014530
165.524054	2687.560148	1.221153	-0.024306	3.019942
166.042429	2698.573208	1.226158	-0.024406	3.025350
166.374797	2709.604054	1.231162	-0.024471	3.030730
166.881574	2720.610486	1.236167	-0.024569	3.036114
167.357814	2731.608513	1.241172	-0.024661	3.041480
167.993915	2742.644416	1.246177	-0.024783	3.046877
168.455518	2753.643249	1.251181	-0.024873	3.052222
168.821056	2764.705492	1.256186	-0.024944	3.057574
169.326406	2775.669465	1.261191	-0.025042	3.062890
169.846209	2786.733828	1.266195	-0.025142	3.068246
170.196598	2797.730737	1.271200	-0.025210	3.073536
170.724506	2808.760628	1.276205	-0.025312	3.078858
171.063664	2819.767457	1.281210	-0.025379	3.084134
171.520981	2830.803316	1.286214	-0.025467	3.089430
171.918566	2841.802347	1.291219	-0.025544	3.094692
172.324612	2852.841173	1.296224	-0.025623	3.099964
172.930725	2863.817618	1.301228	-0.025740	3.105226
173.404125	2874.880367	1.306233	-0.025831	3.110501
173.710837	2885.888572	1.311238	-0.025892	3.115718
174.109980	2896.898992	1.316243	-0.025969	3.120940
174.389715	2907.910724	1.321247	-0.026024	3.126138
175.022162	2918.927598	1.326252	-0.026146	3.131377
175.300199	2929.955250	1.331257	-0.026201	3.136565
175.572014	2940.979821	1.336262	-0.026255	3.141741
175.948885	2951.974617	1.341266	-0.026328	3.146909
176.203821	2963.014175	1.346271	-0.026379	3.152073
176.782100	2974.013226	1.351276	-0.026490	3.157253
177.135234	2985.038047	1.356280	-0.026559	3.162406
177.444517	2996.068346	1.361285	-0.026620	3.167548
177.809391	3007.072247	1.366290	-0.026691	3.172676
177.979646	3018.098159	1.371295	-0.026725	3.177780
178.621735	3029.077292	1.376299	-0.026849	3.182917
179.168380	3040.121639	1.381304	-0.026954	3.188063
179.545992	3051.145622	1.386309	-0.027027	3.193169
179.926966	3062.163464	1.391314	-0.027102	3.198264
180.223062	3073.188341	1.396318	-0.027160	3.203343
180.435629	3084.203191	1.401323	-0.027203	3.208398
180.924892	3095.223443	1.406328	-0.027297	3.213484
181.111305	3106.209116	1.411332	-0.027335	3.218506
181.616233	3117.247399	1.416337	-0.027432	3.223586
181.909988	3128.253628	1.421342	-0.027490	3.228616
182.461640	3139.276816	1.426347	-0.027596	3.233680
182.768810	3150.301863	1.431351	-0.027657	3.238704
183.149430	3161.312141	1.436356	-0.027731	3.243723
183.581113	3172.328653	1.441361	-0.027815	3.248744
183.908578	3183.341885	1.446366	-0.027879	3.253742
184.114637	3194.392605	1.451370	-0.027920	3.258733
184.610179	3205.352453	1.456375	-0.028016	3.263713
184.846086	3216.411544	1.461380	-0.028063	3.268697
185.194771	3227.419172	1.466384	-0.028131	3.273665
185.555545	3238.427124	1.471389	-0.028201	3.278626
186.090029	3249.427762	1.476394	-0.028304	3.283599
186.435028	3260.481399	1.481399	-0.028372	3.288563
187.044111	3271.472644	1.486403	-0.028489	3.293526
187.313007	3282.502564	1.491408	-0.028542	3.298455
187.555992	3293.536176	1.496413	-0.028590	3.303376
188.005119	3304.523701	1.501417	-0.028677	3.308294
188.456537	3315.537982	1.506422	-0.028765	3.313217
188.854791	3326.561504	1.511427	-0.028842	3.318130
189.323722	3337.582459	1.516432	-0.028933	3.323044
189.691384	3348.611193	1.521436	-0.029005	3.327941
190.102567	3359.599424	1.526441	-0.029085	3.332818
190.497453	3370.623718	1.531446	-0.029161	3.337702
190.946157	3381.645807	1.536451	-0.029248	3.342584
191.181861	3392.671585	1.541455	-0.029295	3.347434
191.635585	3403.691581	1.546460	-0.029383	3.352302
191.721648	3414.707447	1.551465	-0.029402	3.357115
192.143204	3425.705255	1.556469	-0.029484	3.361955
192.457316	3436.750192	1.561474	-0.029546	3.366795
192.913882	3447.734695	1.566479	-0.029634	3.371619
193.124576	3458.770355	1.571484	-0.029676	3.376428
193.551112	3469.766627	1.576488	-0.029759	3.381240
194.006067	3480.770314	1.581493	-0.029847	3.386051
194.607353	3491.818730	1.586498	-0.029963	3.390893
194.981105	3502.822303	1.591503	-0.030036	3.395680
195.425736	3513.837991	1.596507	-0.030122	3.400475
195.757611	3524.867601	1.601512	-0.030187	3.405255
196.254735	3535.889652	1.606517	-0.030283	3.410045
196.589628	3546.888180	1.611521	-0.030348	3.414798
197.225071	3557.890503	1.616526	-0.030470	3.419582
197.624010	3568.926885	1.621531	-0.030548	3.424346
197.877722	3579.967990	1.626536	-0.030598	3.429088
198.178217	3590.959634	1.631540	-0.030657	3.433808
198.528492	3601.983765	1.636545	-0.030726	3.438541
198.947072	3612.971485	1.641550	-0.030807	3.443260
199.386131	3624.022767	1.646555	-0.030892	3.448002
199.585388	3635.008318	1.651559	-0.030932	3.452681
200.199249	3646.042489	1.656564	-0.031050	3.457423
200.569460	3657.040373	1.661569	-0.031122	3.462114
201.105749	3668.082673	1.666573	-0.031226	3.466837
201.326997	3679.089111	1.671578	-0.031270	3.471502
201.755947	3690.108561	1.676583	-0.031353	3.476190
201.954844	3701.139390	1.681588	-0.031393	3.480850
202.351696	3712.142212	1.686592	-0.031470	3.485514
202.678907	3723.140425	1.691597	-0.031534	3.490163
203.130622	3734.165890	1.696602	-0.031622	3.494830
203.465356	3745.177145	1.701606	-0.031688	3.499472
203.880945	3756.204508	1.706611	-0.031768	3.504124
204.196524	3767.231421	1.711616	-0.031830	3.508758
204.431515	3778.244848	1.716621	-0.031877	3.513371
204.903151	3789.245526	1.721625	-0.031968	3.518000
205.184087	3800.263211	1.726630	-0.032024	3.522607
205.613788	3811.294441	1.731635	-0.032107	3.527231
205.799784	3822.310731	1.736640	-0.032145	3.531816
206.326681	3833.299175	1.741644	-0.032246	3.536421
206.751587	3844.329222	1.746649	-0.032329	3.541025
207.022342	3855.348984	1.751654	-0.032382	3.545603
207.352916	3866.370147	1.756658	-0.032447	3.550181
207.591720	3877.380452	1.761663	-0.032495	3.554739
208.102429	3888.382142	1.766668	-0.032593	3.559317
208.524163	3899.422373	1.771673	-0.032675	3.563896
208.872150	3910.456595	1.776677	-0.032743	3.568458
209.123646	3921.423543	1.781682	-0.032793	3.572975
209.486425	3932.468767	1.786687	-0.032864	3.577532
209.757375	3943.459648	1.791692	-0.032917	3.582050
210.214964	3954.486004	1.796696	-0.033006	3.586597
210.620228	3965.506998	1.801701	-0.033085	3.591130
211.081377	3976.515099	1.806706	-0.033174	3.595659
211.533468	3987.531453	1.811710	-0.033261	3.600184
211.881617	3998.552018	1.816715	-0.033329	3.604694
212.251354	4009.554755	1.821720	-0.033402	3.609193
212.634945	4020.597976	1.826725	-0.033476	3.613704
212.873318	4031.620456	1.831729	-0.033524	3.618186
213.188426	4042.610180	1.836734	-0.033586	3.622657
213.349714	4053.653705	1.841739	-0.033619	3.627127
213.722666	4064.643402	1.846744	-0.033691	3.631593
214.040201	4075.665483	1.851748	-0.033754	3.636061
214.298020	4086.687616	1.856753	-0.033805	3.640517
214.655989	4097.722778	1.861758	-0.033875	3.644983
215.120920	4108.750651	1.866762	-0.033965	3.649452
215.312002	4119.784097	1.871767	-0.034003	3.653888
215.769630	4130.781417	1.876772	-0.034092	3.658333
216.087641	4141.807254	1.881777	-0.034154	3.662769
216.599148	4152.843799	1.886781	-0.034253	3.667224
216.754619	4163.824332	1.891786	-0.034285	3.671614
217.053137	4174.865527	1.896791	-0.034343	3.676038
217.326784	4185.841886	1.901795	-0.034398	3.680428
217.761791	4196.900455	1.906800	-0.034482	3.684863
217.983224	4207.884994	1.911805	-0.034526	3.689240
218.411508	4218.925946	1.916810	-0.034609	3.693656
218.655680	4229.927280	1.921814	-0.034658	3.698032
219.082260	4240.969588	1.926819	-0.034741	3.702437
219.333375	4251.959330	1.931824	-0.034790	3.706798
219.773363	4262.947348	1.936829	-0.034876	3.711173
220.191186	4273.986208	1.941833	-0.034957	3.715561
220.544373	4285.010709	1.946838	-0.035026	3.719931
220.841108	4296.034434	1.951843	-0.035084	3.724289
221.247003	4307.020052	1.956847	-0.035163	3.728639
221.487422	4318.067908	1.961852	-0.035211	3.732991
221.809588	4329.087051	1.966857	-0.035274	3.737335
222.052705	4340.070098	1.971862	-0.035323	3.741652
