Wed Nov 23 18:28:15 2022

Number of Points = 2200
Depth (nm)	Load (µN)	Time (s)	Depth (V)	Load (V)
0.000000	2.348748	0.000000	0.014442	1.019203
1.511267	7.896137	0.005005	0.014157	1.027982
2.830706	16.916594	0.010009	0.013907	1.041503
4.767207	27.432610	0.015014	0.013541	1.057252
6.865445	38.356143	0.020019	0.013144	1.073408
9.245691	49.410777	0.025024	0.012695	1.089640
11.465999	60.580057	0.030028	0.012276	1.105706
13.818563	71.699892	0.035033	0.011831	1.121540
16.105387	82.848748	0.040038	0.011400	1.137157
18.378042	93.993022	0.045043	0.010970	1.152549
20.261515	105.198390	0.050047	0.010614	1.167632
22.061423	116.346640	0.055052	0.010274	1.182413
23.648415	127.518791	0.060057	0.009973	1.196944
25.332067	138.650317	0.065061	0.009654	1.211292
27.042776	149.716778	0.070066	0.009331	1.225406
28.701919	160.833122	0.075071	0.009017	1.239394
30.313574	171.966769	0.080076	0.008712	1.253224
31.858589	183.090710	0.085080	0.008419	1.266864
33.445174	194.135664	0.090085	0.008118	1.280283
35.227715	205.250265	0.095090	0.007781	1.293723
36.453997	216.469445	0.100094	0.007548	1.306913
38.110901	227.435399	0.105099	0.007235	1.319863
39.296609	238.580221	0.110104	0.007009	1.332694
40.835412	249.614568	0.115109	0.006718	1.345421
42.193613	260.728472	0.120113	0.006460	1.358044
43.521913	271.814251	0.125118	0.006208	1.370507
45.176213	282.847496	0.130123	0.005895	1.382927
46.340993	293.999651	0.135128	0.005674	1.395174
47.476181	305.071396	0.140132	0.005458	1.407219
48.951459	316.101143	0.145137	0.005179	1.419244
49.876963	327.238342	0.150142	0.005002	1.431074
51.025088	338.331780	0.155146	0.004784	1.442844
52.045961	349.365678	0.160151	0.004590	1.454411
53.249334	360.433850	0.165156	0.004361	1.465987
54.350606	371.490377	0.170161	0.004152	1.477423
55.359871	382.567654	0.175165	0.003960	1.488758
56.445048	393.616114	0.180170	0.003753	1.500006
57.760905	404.635197	0.185175	0.003504	1.511221
59.057579	415.728627	0.190180	0.003258	1.522418
59.920453	426.841207	0.195184	0.003093	1.533402
60.917847	437.888927	0.200189	0.002903	1.544291
62.009123	448.923515	0.205194	0.002696	1.555123
62.876653	460.004536	0.210198	0.002530	1.565848
63.846369	471.063164	0.215203	0.002345	1.576513
64.526550	482.146552	0.220208	0.002215	1.587032
65.592363	493.164781	0.225213	0.002012	1.597549
66.528649	504.196280	0.230217	0.001834	1.607966
67.457261	515.281719	0.235222	0.001657	1.618362
68.555646	526.279573	0.240227	0.001448	1.628667
69.599751	537.356961	0.245232	0.001249	1.638960
70.327592	548.432883	0.250236	0.001110	1.649088
71.112059	559.497754	0.255241	0.000960	1.659161
71.779626	570.528194	0.260246	0.000832	1.669106
73.015309	581.514456	0.265250	0.000598	1.679129
73.822126	592.607470	0.270255	0.000443	1.689053
74.944808	603.613557	0.275260	0.000230	1.698940
75.655121	614.729956	0.280265	0.000094	1.708739
76.536658	625.756092	0.285269	-0.000074	1.718456
77.343832	636.773746	0.290274	-0.000228	1.728088
78.354414	647.852902	0.295279	-0.000421	1.737779
79.353187	658.826544	0.300283	-0.000611	1.747324
80.429037	669.872631	0.305288	-0.000815	1.756900
81.080702	681.005699	0.310293	-0.000940	1.766372
82.199177	691.978834	0.315298	-0.001153	1.775796
83.024594	703.018187	0.320302	-0.001311	1.785140
84.037539	714.065549	0.325307	-0.001503	1.794495
84.759759	725.164861	0.330312	-0.001642	1.803760
85.777988	736.128302	0.335317	-0.001835	1.812952
86.257346	747.241995	0.340321	-0.001928	1.822065
87.706797	758.167008	0.345326	-0.002203	1.831255
88.706857	769.243573	0.350331	-0.002393	1.840393
89.560028	780.341035	0.355335	-0.002556	1.849461
90.415890	791.379262	0.360340	-0.002719	1.858439
91.279298	802.372963	0.365345	-0.002884	1.867340
91.795875	813.475808	0.370350	-0.002984	1.876189
92.707174	824.456131	0.375354	-0.003158	1.885008
93.271068	835.543007	0.380359	-0.003266	1.893775
94.546155	846.497578	0.385364	-0.003508	1.902590
94.904410	857.645915	0.390369	-0.003578	1.911267
96.073514	868.545692	0.395373	-0.003800	1.919931
96.964163	879.653145	0.400378	-0.003970	1.928639
97.588912	890.716018	0.405383	-0.004090	1.937204
98.286975	901.734117	0.410387	-0.004224	1.945717
99.246558	912.723563	0.415392	-0.004406	1.954239
99.694587	923.858700	0.420397	-0.004493	1.962700
100.656676	934.786479	0.425402	-0.004677	1.971103
101.856750	945.789426	0.430406	-0.004904	1.979585
102.694038	956.890247	0.435411	-0.005064	1.988012
103.368332	967.930685	0.440416	-0.005194	1.996316
104.196483	978.986650	0.445421	-0.005352	2.004636
104.644657	990.016290	0.450425	-0.005438	2.012807
105.789771	1000.970812	0.455430	-0.005656	2.021064
106.328979	1012.071528	0.460435	-0.005760	2.029242
107.605061	1023.025766	0.465439	-0.006002	2.037464
108.277489	1034.130839	0.470444	-0.006131	2.045611
109.142601	1045.150221	0.475449	-0.006296	2.053712
109.654041	1056.215906	0.480454	-0.006395	2.061728
110.632592	1067.191041	0.485458	-0.006581	2.069762
111.684834	1078.227111	0.490463	-0.006781	2.077825
112.221944	1089.318646	0.495468	-0.006885	2.085771
112.947527	1100.334450	0.500472	-0.007024	2.093679
113.692551	1111.335026	0.505477	-0.007166	2.101552
114.622944	1122.345897	0.510482	-0.007344	2.109445
115.336039	1133.405683	0.515487	-0.007480	2.117291
116.183163	1144.411637	0.520491	-0.007642	2.125103
116.775954	1155.458014	0.525496	-0.007756	2.132854
117.393833	1166.518723	0.530501	-0.007874	2.140592
118.558208	1177.485359	0.535506	-0.008096	2.148364
119.142494	1188.561915	0.540510	-0.008208	2.156049
120.077773	1199.549203	0.545515	-0.008386	2.163727
120.440361	1210.665328	0.550520	-0.008457	2.171333
121.210081	1221.632041	0.555524	-0.008604	2.178904
121.674967	1232.694214	0.560529	-0.008694	2.186444
122.594272	1243.668723	0.565534	-0.008869	2.194002
123.282322	1254.701153	0.570539	-0.009001	2.201520
123.970698	1265.742789	0.575543	-0.009133	2.209018
124.797208	1276.765118	0.580548	-0.009291	2.216509
125.451405	1287.793470	0.585553	-0.009416	2.223940
125.847511	1298.886714	0.590558	-0.009493	2.231332
126.572891	1309.866651	0.595562	-0.009632	2.238697
127.143398	1320.864941	0.600567	-0.009742	2.246016
128.127132	1331.897126	0.605572	-0.009929	2.253423
128.888668	1342.933646	0.610576	-0.010075	2.260760
129.283604	1354.001761	0.615581	-0.010152	2.268014
129.867307	1364.995191	0.620586	-0.010264	2.275238
130.561582	1375.982269	0.625591	-0.010397	2.282458
131.374797	1387.041899	0.630595	-0.010552	2.289726
132.214107	1398.058918	0.635600	-0.010713	2.296950
132.790736	1409.101643	0.640605	-0.010824	2.304112
133.396495	1420.094701	0.645610	-0.010940	2.311226
133.712526	1431.214765	0.650614	-0.011002	2.318337
134.502027	1442.126552	0.655619	-0.011153	2.325394
135.276225	1453.174927	0.660624	-0.011301	2.332512
136.168695	1464.217092	0.665628	-0.011471	2.339629
136.509851	1475.276899	0.670633	-0.011538	2.346621
137.333460	1486.255870	0.675638	-0.011695	2.353641
137.890258	1497.275010	0.680643	-0.011802	2.360610
139.039723	1508.269098	0.685647	-0.012021	2.367664
139.472136	1519.387435	0.690652	-0.012105	2.374628
139.997640	1530.367407	0.695657	-0.012206	2.381504
140.509102	1541.408470	0.700661	-0.012305	2.388395
141.062210	1552.411890	0.705666	-0.012411	2.395252
141.642774	1563.457079	0.710671	-0.012523	2.402120
142.564048	1574.445842	0.715676	-0.012698	2.409002
142.928768	1585.507514	0.720680	-0.012770	2.415797
143.511351	1596.515461	0.725685	-0.012882	2.422583
143.918285	1607.555859	0.730690	-0.012961	2.429336
144.801274	1618.508973	0.735695	-0.013129	2.436111
145.515446	1629.577789	0.740699	-0.013266	2.442903
146.271542	1640.604786	0.745704	-0.013410	2.449659
146.860800	1651.612206	0.750709	-0.013524	2.456352
147.487043	1662.651045	0.755713	-0.013644	2.463053
147.953921	1673.691599	0.760718	-0.013734	2.469705
148.586760	1684.716700	0.765723	-0.013856	2.476362
149.138854	1695.709589	0.770728	-0.013962	2.482967
149.755177	1706.760181	0.775732	-0.014080	2.489600
150.122186	1717.780770	0.780737	-0.014152	2.496150
150.884386	1728.787252	0.785742	-0.014298	2.502750
151.449867	1739.801679	0.790747	-0.014407	2.509299
151.939253	1750.846526	0.795751	-0.014501	2.515835
152.356401	1761.884297	0.800756	-0.014582	2.522336
153.020380	1772.863450	0.805761	-0.014710	2.528832
153.674554	1783.880355	0.810765	-0.014835	2.535331
154.191550	1794.953997	0.815770	-0.014935	2.541821
154.564369	1805.980267	0.820775	-0.015007	2.548240
155.340658	1816.923524	0.825780	-0.015156	2.554670
155.809373	1828.014734	0.830784	-0.015246	2.561111
156.625374	1839.001671	0.835789	-0.015402	2.567541
156.910037	1850.091137	0.840794	-0.015458	2.573915
157.283753	1861.103196	0.845799	-0.015531	2.580245
157.772233	1872.080349	0.850803	-0.015626	2.586561
158.637968	1883.071152	0.855808	-0.015791	2.592938
158.790245	1894.167145	0.860813	-0.015822	2.599229
159.530457	1905.129167	0.865817	-0.015964	2.605535
160.114985	1916.160499	0.870822	-0.016076	2.611837
160.724620	1927.186426	0.875827	-0.016193	2.618125
161.165478	1938.204410	0.880832	-0.016279	2.624363
161.548097	1949.217069	0.885836	-0.016353	2.630572
162.070365	1960.274671	0.890841	-0.016454	2.636817
162.795204	1971.248776	0.895846	-0.016593	2.643037
163.276472	1982.323261	0.900850	-0.016686	2.649254
163.721361	1993.310933	0.905855	-0.016772	2.655402
164.064271	2004.350821	0.910860	-0.016839	2.661547
164.648389	2015.367411	0.915865	-0.016951	2.667706
164.827987	2026.380691	0.920869	-0.016988	2.673780
165.647757	2037.373478	0.925874	-0.017144	2.679939
165.929760	2048.429487	0.930879	-0.017200	2.686025
166.953198	2059.398096	0.935884	-0.017395	2.692177
167.378427	2070.424595	0.940888	-0.017477	2.698244
167.700386	2081.457778	0.945893	-0.017540	2.704284
168.432947	2092.466255	0.950898	-0.017681	2.710366
169.066495	2103.480667	0.955902	-0.017802	2.716421
169.978651	2114.479182	0.960907	-0.017976	2.722501
170.485197	2125.551950	0.965912	-0.018074	2.728538
170.595805	2136.604730	0.970917	-0.018097	2.734484
171.331122	2147.538736	0.975921	-0.018238	2.740459
171.830647	2158.622420	0.980926	-0.018335	2.746461
172.261175	2169.632359	0.985931	-0.018418	2.752399
172.514230	2180.664577	0.990936	-0.018468	2.758307
173.262905	2191.596956	0.995940	-0.018611	2.764231
173.730557	2202.710631	1.000945	-0.018702	2.770191
174.194377	2213.689689	1.005950	-0.018792	2.776067
174.911514	2224.713177	1.010954	-0.018929	2.781996
175.205833	2235.730046	1.015959	-0.018987	2.787838
175.891922	2246.739507	1.020964	-0.019118	2.793729
176.287787	2257.800692	1.025969	-0.019195	2.799587
176.820568	2268.781989	1.030973	-0.019298	2.805413
177.186624	2279.840340	1.035978	-0.019370	2.811240
177.941631	2290.820633	1.040983	-0.019514	2.817077
178.275376	2301.876979	1.045988	-0.019579	2.822873
178.809425	2312.857651	1.050992	-0.019682	2.828650
179.336844	2323.878578	1.055997	-0.019784	2.834435
179.814666	2334.938601	1.061002	-0.019876	2.840221
180.203217	2345.947408	1.066006	-0.019952	2.845954
180.803100	2356.946505	1.071011	-0.020067	2.851703
181.225819	2367.954306	1.076016	-0.020149	2.857418
181.524589	2379.016112	1.081021	-0.020208	2.863129
181.941620	2390.000376	1.086025	-0.020289	2.868808
182.723496	2401.005051	1.091030	-0.020438	2.874542
182.948712	2412.082636	1.096035	-0.020484	2.880216
183.230279	2423.080759	1.101039	-0.020539	2.885846
183.857046	2434.092272	1.106044	-0.020659	2.891526
184.214594	2445.131427	1.111049	-0.020729	2.897167
184.486414	2456.132112	1.116054	-0.020783	2.902764
184.889407	2467.165097	1.121058	-0.020861	2.908387
185.663091	2478.127196	1.126063	-0.021009	2.914020
186.222785	2489.173595	1.131068	-0.021117	2.919651
186.509173	2500.201806	1.136073	-0.021173	2.925221
186.941855	2511.264305	1.141077	-0.021257	2.930819
187.401654	2522.236285	1.146082	-0.021346	2.936366
187.830124	2533.264784	1.151087	-0.021429	2.941925
188.127319	2544.259617	1.156091	-0.021488	2.947437
188.475101	2555.311656	1.161096	-0.021556	2.952975
189.115043	2566.263477	1.166101	-0.021679	2.958497
189.386119	2577.375380	1.171106	-0.021732	2.964032
189.953387	2588.335805	1.176110	-0.021841	2.969526
190.453148	2599.378815	1.181115	-0.021938	2.975040
190.745669	2610.384723	1.186120	-0.021996	2.980495
191.223266	2621.408769	1.191125	-0.022088	2.985977
191.767470	2632.422057	1.196129	-0.022193	2.991452
192.129735	2643.432328	1.201134	-0.022263	2.996890
192.688089	2654.459709	1.206139	-0.022371	3.002354
193.109631	2665.467477	1.211143	-0.022453	3.007779
193.882078	2676.471181	1.216148	-0.022600	3.013243
194.123354	2687.548868	1.221153	-0.022649	3.018656
194.741919	2698.485909	1.226158	-0.022767	3.024045
195.019181	2709.579587	1.231162	-0.022822	3.029451
195.260778	2720.572038	1.236167	-0.022870	3.034794
195.815616	2731.603968	1.241172	-0.022977	3.040191
195.807687	2742.628658	1.246177	-0.022978	3.045494
196.328512	2753.637146	1.251181	-0.023079	3.050855
197.038528	2764.609845	1.256186	-0.023215	3.056217
197.686836	2775.664064	1.261191	-0.023339	3.061600
198.078617	2786.638155	1.266195	-0.023415	3.066898
198.275199	2797.700142	1.271200	-0.023455	3.072202
199.008547	2808.692335	1.276205	-0.023595	3.077538
199.546757	2819.745852	1.281210	-0.023699	3.082867
199.922358	2830.757272	1.286214	-0.023772	3.088144
200.375795	2841.749060	1.291219	-0.023860	3.093414
200.718291	2852.777690	1.296224	-0.023927	3.098676
201.003393	2863.829819	1.301228	-0.023983	3.103932
201.646698	2874.803882	1.306233	-0.024107	3.109192
202.144540	2885.834139	1.311238	-0.024203	3.114450
202.582813	2896.850550	1.316243	-0.024288	3.119683
202.924782	2907.884949	1.321247	-0.024355	3.124903
203.202701	2918.913601	1.326252	-0.024409	3.130103
203.648404	2929.914948	1.331257	-0.024496	3.135304
204.037849	2940.916046	1.336262	-0.024572	3.140489
204.273749	2951.980084	1.341266	-0.024619	3.145673
204.870313	2962.922712	1.346271	-0.024733	3.150842
205.145013	2973.996971	1.351276	-0.024788	3.156019
205.602196	2984.986463	1.356280	-0.024876	3.161173
206.092115	2996.021285	1.361285	-0.024971	3.166344
206.588105	3007.016064	1.366290	-0.025066	3.171489
206.912355	3018.052171	1.371295	-0.025130	3.176621
207.352412	3029.056455	1.376299	-0.025215	3.181746
207.779375	3040.093629	1.381304	-0.025298	3.186876
208.167260	3051.114769	1.386309	-0.025374	3.191985
208.348020	3062.119307	1.391314	-0.025410	3.197050
208.700071	3073.147818	1.396318	-0.025479	3.202141
209.104641	3084.172187	1.401323	-0.025558	3.207229
209.695852	3095.152913	1.406328	-0.025671	3.212313
210.191848	3106.162713	1.411332	-0.025767	3.217390
210.586428	3117.212844	1.416337	-0.025844	3.222464
211.125790	3128.210778	1.421342	-0.025948	3.227525
211.450663	3139.237345	1.426347	-0.026012	3.232563
211.951627	3150.255589	1.431351	-0.026108	3.237613
212.366690	3161.258156	1.436356	-0.026189	3.242636
212.732303	3172.293119	1.441361	-0.026260	3.247659
212.911375	3183.325558	1.446366	-0.026297	3.252649
213.565307	3194.304205	1.451370	-0.026422	3.257669
214.049299	3205.319232	1.456375	-0.026516	3.262675
214.456237	3216.381403	1.461380	-0.026595	3.267684
214.703274	3227.358676	1.466384	-0.026644	3.272628
215.150427	3238.394210	1.471389	-0.026730	3.277615
215.593193	3249.413939	1.476394	-0.026816	3.282587
216.016454	3260.449372	1.481399	-0.026898	3.287556
216.326362	3271.409879	1.486403	-0.026959	3.292470
217.075312	3282.429549	1.491408	-0.027102	3.297458
217.536524	3293.498454	1.496413	-0.027192	3.302424
217.830617	3304.485168	1.501417	-0.027250	3.307325
218.161826	3315.516811	1.506422	-0.027315	3.312243
218.611842	3326.539993	1.511427	-0.027402	3.317165
219.011876	3337.524680	1.516432	-0.027479	3.322056
219.351295	3348.580733	1.521436	-0.027546	3.326964
219.909594	3359.541099	1.526441	-0.027653	3.331849
220.168235	3370.629781	1.531446	-0.027705	3.336747
220.496660	3381.584830	1.536451	-0.027769	3.341587
221.215003	3392.619738	1.541455	-0.027907	3.346503
221.396988	3403.651654	1.546460	-0.027943	3.351345
221.658955	3414.653574	1.551465	-0.027995	3.356176
222.024280	3425.689187	1.556469	-0.028067	3.361028
222.311922	3436.708317	1.561474	-0.028123	3.365856
222.512471	3447.719057	1.566479	-0.028164	3.370662
222.790824	3458.734003	1.571484	-0.028219	3.375473
223.379086	3469.703462	1.576488	-0.028332	3.380295
223.708797	3480.787443	1.581493	-0.028396	3.385128
224.392754	3491.737293	1.586498	-0.028527	3.389940
224.464271	3502.832923	1.591503	-0.028544	3.394733
225.037912	3513.780425	1.596507	-0.028654	3.399516
225.458156	3524.836740	1.601512	-0.028735	3.404320
225.648819	3535.852880	1.606517	-0.028774	3.409073
226.067984	3546.869909	1.611521	-0.028855	3.413847
226.538346	3557.840397	1.616526	-0.028946	3.418600
226.897725	3568.881491	1.621531	-0.029016	3.423364
227.363410	3579.909596	1.626536	-0.029107	3.428128
227.638460	3590.925640	1.631540	-0.029161	3.432857
227.641912	3601.955176	1.636545	-0.029164	3.437554
227.836374	3612.948526	1.641550	-0.029204	3.442251
228.403189	3623.986059	1.646555	-0.029313	3.447004
228.769392	3634.987823	1.651559	-0.029384	3.451712
229.144418	3646.011381	1.656564	-0.029457	3.456424
229.323543	3657.023685	1.661569	-0.029493	3.461102
229.669211	3668.051910	1.666573	-0.029561	3.465799
230.111087	3679.037909	1.671578	-0.029647	3.470483
230.437834	3690.081859	1.676583	-0.029711	3.475172
230.957159	3701.065266	1.681588	-0.029811	3.479852
231.154141	3712.119409	1.686592	-0.029851	3.484517
231.479863	3723.123576	1.691597	-0.029914	3.489170
231.613563	3734.160858	1.696602	-0.029942	3.493809
232.059120	3745.164474	1.701606	-0.030029	3.498463
232.425589	3756.131422	1.706611	-0.030100	3.503086
232.945327	3767.186053	1.711616	-0.030200	3.507757
233.128370	3778.204239	1.716621	-0.030237	3.512369
233.271438	3789.235171	1.721625	-0.030267	3.516975
233.745894	3800.217098	1.726630	-0.030359	3.521592
234.394639	3811.235142	1.731635	-0.030483	3.526238
234.623412	3822.271980	1.736640	-0.030529	3.530838
235.063862	3833.264661	1.741644	-0.030614	3.535437
235.197768	3844.284606	1.746649	-0.030642	3.540007
235.777363	3855.310620	1.751654	-0.030754	3.544624
236.334236	3866.287962	1.756658	-0.030861	3.549212
236.566558	3877.383366	1.761663	-0.030907	3.553806
236.919540	3888.356804	1.766668	-0.030976	3.558358
237.446326	3899.369406	1.771673	-0.031078	3.562938
237.637525	3910.383180	1.776677	-0.031116	3.567477
237.729406	3921.442369	1.781682	-0.031136	3.572017
238.247080	3932.406219	1.786687	-0.031236	3.576559
238.536640	3943.419535	1.791692	-0.031293	3.581091
239.011453	3954.455722	1.796696	-0.031385	3.585646
239.432720	3965.455522	1.801701	-0.031467	3.590175
239.834332	3976.475607	1.806706	-0.031545	3.594704
240.203850	3987.506214	1.811710	-0.031617	3.599228
240.497173	3998.525153	1.816715	-0.031675	3.603734
240.783675	4009.550717	1.821720	-0.031731	3.608235
241.171811	4020.548656	1.826725	-0.031807	3.612731
241.836306	4031.560685	1.831729	-0.031934	3.617256
242.002914	4042.562871	1.836734	-0.031968	3.621719
242.556866	4053.615585	1.841739	-0.032075	3.626237
242.792151	4064.614149	1.846744	-0.032122	3.630694
243.164947	4075.622706	1.851748	-0.032194	3.635164
243.402720	4086.646593	1.856753	-0.032242	3.639620
243.780079	4097.665298	1.861758	-0.032315	3.644084
244.136364	4108.725997	1.866762	-0.032385	3.648557
244.422150	4119.762192	1.871767	-0.032441	3.653006
244.711314	4130.751075	1.876772	-0.032498	3.657432
245.246846	4141.765482	1.881777	-0.032601	3.661888
245.616364	4152.795825	1.886781	-0.032673	3.666328
245.912401	4163.806598	1.891786	-0.032732	3.670747
246.063442	4174.834311	1.896791	-0.032763	3.675152
246.543054	4185.798935	1.901795	-0.032855	3.679561
246.971846	4196.849410	1.906800	-0.032939	3.683993
247.128123	4207.898006	1.911805	-0.032971	3.688391
247.428561	4218.853761	1.916810	-0.033030	3.692762
247.988056	4229.912464	1.921814	-0.033137	3.697195
247.989280	4240.896867	1.926819	-0.033140	3.701536
248.223080	4251.946155	1.931824	-0.033187	3.705921
248.716325	4262.913703	1.936829	-0.033282	3.710295
249.121103	4273.958010	1.941833	-0.033361	3.714686
249.565859	4284.947411	1.946838	-0.033447	3.719053
249.975900	4295.983747	1.951843	-0.033527	3.723430
250.067969	4307.008868	1.956847	-0.033547	3.727765
250.548219	4318.022483	1.961852	-0.033640	3.732130
250.795462	4329.050405	1.966857	-0.033689	3.736472
251.505554	4340.024957	1.971862	-0.033825	3.740834
