Wed Nov 23 18:28:15 2022

Number of Points = 2200
Depth (nm)	Load (µN)	Time (s)	Depth (V)	Load (V)
-3.714326	1.306930	0.000000	0.027310	0.980246
0.000000	6.950037	0.005005	0.026612	0.990745
3.973593	15.866841	0.010009	0.025864	1.006081
7.091216	26.662681	0.015014	0.025277	1.023436
9.369111	37.923871	0.020019	0.024846	1.040718
11.018038	49.256189	0.025024	0.024534	1.057491
12.087020	60.577218	0.030028	0.024331	1.073692
12.948414	71.809099	0.035033	0.024166	1.089427
14.448891	82.760955	0.040038	0.023882	1.104877
20.254406	93.019845	0.045043	0.022790	1.121287
22.420525	104.744762	0.050047	0.022381	1.137619
24.766506	115.947134	0.055052	0.021938	1.153136
26.661282	127.206632	0.060057	0.021580	1.168308
28.341352	138.402317	0.065061	0.021262	1.183106
29.971796	149.536699	0.070066	0.020953	1.197623
31.940243	160.563360	0.075071	0.020581	1.211984
33.655757	171.761054	0.080076	0.020256	1.226270
35.365257	182.837733	0.085080	0.019933	1.240243
36.985358	193.969166	0.090085	0.019626	1.254086
38.444569	205.115262	0.095090	0.019349	1.267725
39.861363	216.213817	0.100094	0.019081	1.281146
41.276929	227.302112	0.105099	0.018812	1.294414
42.632629	238.479252	0.110104	0.018555	1.307623
43.630748	249.583802	0.115109	0.018365	1.320472
45.086692	260.560496	0.120113	0.018089	1.333239
46.434030	271.681962	0.125118	0.017834	1.346000
47.499738	282.789625	0.130123	0.017631	1.358514
48.825455	293.845411	0.135128	0.017379	1.370959
50.136884	304.912324	0.140132	0.017131	1.383297
51.604044	315.964567	0.145137	0.016853	1.395569
52.743253	327.091947	0.150142	0.016636	1.407688
54.232505	338.098783	0.155146	0.016354	1.419710
55.502229	349.219325	0.160151	0.016113	1.431664
56.660084	360.307252	0.165156	0.015893	1.443445
57.813451	371.349012	0.170161	0.015674	1.455081
58.996459	382.461877	0.175165	0.015449	1.466706
60.399102	393.437947	0.180170	0.015183	1.478181
61.446421	404.577064	0.185175	0.014984	1.489602
62.548447	415.640563	0.190180	0.014774	1.500881
63.412740	426.744246	0.195184	0.014609	1.512031
64.570452	437.738711	0.200189	0.014389	1.523095
65.558657	448.860603	0.205194	0.014201	1.534142
66.712476	459.864543	0.210198	0.013982	1.545055
67.947628	470.912870	0.215203	0.013748	1.555959
68.962154	482.011154	0.220208	0.013554	1.566760
69.725553	493.118447	0.225213	0.013408	1.577411
70.517942	504.124790	0.230217	0.013257	1.587906
71.541203	515.197645	0.235222	0.013062	1.598469
72.285402	526.232238	0.240227	0.012920	1.608836
73.100768	537.326121	0.245232	0.012764	1.619213
73.755109	548.363772	0.250236	0.012639	1.629421
74.823694	559.354807	0.255241	0.012435	1.639655
75.377504	570.496012	0.260246	0.012329	1.649796
76.139536	581.501377	0.265250	0.012183	1.659821
77.084656	592.515641	0.270255	0.012003	1.669849
77.755640	603.623688	0.275260	0.011874	1.679815
78.525569	614.643536	0.280265	0.011727	1.689674
79.244415	625.702205	0.285269	0.011590	1.699495
80.287414	636.681505	0.290274	0.011391	1.709289
80.980485	647.793239	0.295279	0.011258	1.719034
81.736504	658.824051	0.300283	0.011114	1.728673
82.263151	669.912739	0.305288	0.011012	1.738240
82.657534	680.954235	0.310293	0.010935	1.747675
83.232372	692.009864	0.315298	0.010825	1.757124
83.953051	702.974124	0.320302	0.010687	1.766489
84.590432	714.068832	0.325307	0.010565	1.775888
85.231506	725.088717	0.330312	0.010441	1.785176
85.917907	736.137054	0.335317	0.010310	1.794453
86.395817	747.180213	0.340321	0.010218	1.803617
86.884551	758.236369	0.345326	0.010123	1.812749
87.466711	769.264177	0.350331	0.010011	1.821838
87.972381	780.311344	0.355335	0.009914	1.830876
88.705081	791.287469	0.360340	0.009773	1.839876
89.606009	802.347833	0.365345	0.009602	1.848946
90.104207	813.398232	0.370350	0.009505	1.857851
91.685368	824.327867	0.375354	0.009206	1.866917
92.610804	835.420682	0.380359	0.009030	1.875887
93.189469	846.518491	0.385364	0.008918	1.884723
93.835404	857.538575	0.390369	0.008794	1.893475
94.783396	868.550304	0.395373	0.008614	1.902262
95.470226	879.608879	0.400378	0.008482	1.910974
96.162452	890.651775	0.405383	0.008349	1.919636
96.570254	901.724203	0.410387	0.008270	1.928206
97.365966	912.732085	0.415392	0.008118	1.936790
97.916531	923.756504	0.420397	0.008012	1.945285
98.841859	934.724477	0.425402	0.007836	1.953798
99.491875	945.838323	0.430406	0.007711	1.962311
100.342162	956.819023	0.435411	0.007549	1.970740
100.980045	967.904851	0.440416	0.007426	1.979156
101.298971	978.963753	0.445421	0.007364	1.987435
102.213988	989.890076	0.450425	0.007189	1.995733
103.098141	1000.994426	0.455430	0.007021	2.004119
103.737383	1012.003602	0.460435	0.006898	2.012338
104.624890	1023.039632	0.465439	0.006729	2.020606
105.168471	1034.104014	0.470444	0.006624	2.028774
105.843092	1045.123054	0.475449	0.006495	2.036909
106.636905	1056.118836	0.480454	0.006343	2.045025
107.392581	1067.193451	0.485458	0.006199	2.053154
107.841626	1078.237859	0.490463	0.006112	2.061155
108.330636	1089.291098	0.495468	0.006017	2.069141
108.763692	1100.294413	0.500472	0.005933	2.077048
109.339208	1111.341017	0.505477	0.005822	2.084988
109.696013	1122.394129	0.510482	0.005753	2.092851
110.060060	1133.381735	0.515487	0.005682	2.100640
110.612879	1144.408779	0.520491	0.005575	2.108472
110.926955	1155.486549	0.525496	0.005513	2.116254
111.432612	1166.469489	0.530501	0.005416	2.123987
111.806876	1177.520852	0.535506	0.005343	2.131708
112.119590	1188.551181	0.540510	0.005281	2.139372
112.744129	1199.500367	0.545515	0.005162	2.147025
114.438847	1210.478127	0.550520	0.004841	2.154918
114.966241	1221.603779	0.555524	0.004739	2.162613
115.952509	1232.594936	0.560529	0.004551	2.170295
116.960873	1243.613803	0.565534	0.004359	2.177973
117.428091	1254.711768	0.570539	0.004269	2.185554
117.978656	1265.711956	0.575543	0.004163	2.193062
118.777384	1276.716462	0.580548	0.004010	2.200603
119.430193	1287.763090	0.585553	0.003885	2.208113
120.562437	1298.728034	0.590558	0.003670	2.215651
121.165969	1309.840710	0.595562	0.003554	2.223142
121.776453	1320.836273	0.600567	0.003437	2.230532
122.325308	1331.900522	0.605572	0.003331	2.237930
122.822412	1342.928096	0.610576	0.003235	2.245267
123.137234	1353.969467	0.615581	0.003173	2.252549
123.817751	1364.950081	0.620586	0.003043	2.259848
124.374736	1375.992796	0.625591	0.002936	2.267137
124.792706	1387.026650	0.630595	0.002854	2.274366
125.434377	1398.039283	0.635600	0.002731	2.281607
125.941914	1409.052983	0.640605	0.002633	2.288796
126.852421	1420.055347	0.645610	0.002460	2.296042
127.169068	1431.136955	0.650614	0.002398	2.303189
127.723175	1442.139350	0.655619	0.002291	2.310313
127.947588	1453.222521	0.660624	0.002246	2.317397
128.312136	1464.229188	0.665628	0.002175	2.324441
128.796662	1475.203733	0.670633	0.002081	2.331467
129.139232	1486.279903	0.675638	0.002014	2.338507
129.626895	1497.251183	0.680643	0.001920	2.345490
130.066404	1508.336141	0.685647	0.001835	2.352513
130.369819	1519.340761	0.690652	0.001775	2.359437
130.766887	1530.350246	0.695657	0.001698	2.366363
131.611527	1541.332256	0.700661	0.001537	2.373343
132.178536	1552.372795	0.705666	0.001428	2.380282
132.561242	1563.427828	0.710671	0.001353	2.387172
132.976012	1574.477869	0.715676	0.001272	2.394045
133.233920	1585.479031	0.720680	0.001221	2.400837
133.672875	1596.495948	0.725685	0.001136	2.407656
134.001993	1607.544444	0.730690	0.001072	2.414453
134.370791	1618.539501	0.735695	0.001000	2.421206
134.602716	1629.591641	0.740699	0.000954	2.427947
135.168042	1640.592207	0.745704	0.000845	2.434704
135.264405	1651.634318	0.750709	0.000824	2.441375
135.750349	1662.639650	0.755713	0.000730	2.448083
136.434236	1673.621084	0.760718	0.000599	2.454796
136.878359	1684.681587	0.765723	0.000513	2.461491
137.270100	1695.691597	0.770728	0.000437	2.468128
137.753257	1706.745150	0.775732	0.000343	2.474790
138.170791	1717.749576	0.780737	0.000262	2.481392
138.736717	1728.776341	0.785742	0.000153	2.488019
139.293429	1739.767391	0.790747	0.000046	2.494605
139.785503	1750.833502	0.795751	-0.000049	2.501205
139.926650	1761.867589	0.800756	-0.000078	2.507702
140.368683	1772.867093	0.805761	-0.000164	2.514219
140.820686	1783.863607	0.810765	-0.000251	2.520719
140.992933	1794.951558	0.815770	-0.000286	2.527203
141.471528	1805.928978	0.820775	-0.000379	2.533663
141.615701	1816.981660	0.825780	-0.000409	2.540088
141.910634	1827.969719	0.830784	-0.000467	2.546488
142.436167	1839.021323	0.835789	-0.000568	2.552950
142.602570	1850.028125	0.840794	-0.000602	2.559304
142.948234	1861.057134	0.845799	-0.000670	2.565688
143.286420	1872.072487	0.850803	-0.000736	2.572047
143.627531	1883.156300	0.855808	-0.000803	2.578430
143.844673	1894.107581	0.860813	-0.000846	2.584699
144.272397	1905.137138	0.865817	-0.000929	2.591035
144.666497	1916.139356	0.870822	-0.001006	2.597334
145.211953	1927.183983	0.875827	-0.001111	2.603669
145.463524	1938.178056	0.880832	-0.001161	2.609907
145.894460	1949.238465	0.885836	-0.001244	2.616200
146.104339	1960.226685	0.890841	-0.001286	2.622397
146.199733	1971.305695	0.895846	-0.001307	2.628610
146.716161	1982.235818	0.900850	-0.001407	2.634800
147.037350	1993.315789	0.905855	-0.001470	2.641024
147.366736	2004.328256	0.910860	-0.001534	2.647198
147.728946	2015.358686	0.915865	-0.001605	2.653373
147.843395	2026.369092	0.920869	-0.001629	2.659478
148.286874	2037.374127	0.925874	-0.001715	2.665625
148.691798	2048.386140	0.930879	-0.001794	2.671754
149.030434	2059.419942	0.935884	-0.001860	2.677869
149.334213	2070.409986	0.940888	-0.001920	2.683940
149.806494	2081.443484	0.945893	-0.002011	2.690051
150.202211	2092.435170	0.950898	-0.002088	2.696111
150.691810	2103.485651	0.955902	-0.002183	2.702206
150.767988	2114.522907	0.960907	-0.002200	2.708209
151.052979	2125.521786	0.965912	-0.002256	2.714214
151.369185	2136.548862	0.970917	-0.002318	2.720225
151.563315	2147.582360	0.975921	-0.002357	2.726206
151.853232	2158.588715	0.980926	-0.002414	2.732176
152.348652	2169.593947	0.985931	-0.002510	2.738166
152.528671	2180.623736	0.990936	-0.002546	2.744104
152.799912	2191.652541	0.995940	-0.002600	2.750043
153.259324	2202.639525	1.000945	-0.002689	2.755979
154.014392	2213.665102	1.005950	-0.002833	2.761971
154.470186	2224.689708	1.010954	-0.002922	2.767900
154.896337	2235.717116	1.015959	-0.003004	2.773813
154.985608	2246.772109	1.020964	-0.003024	2.779672
155.434689	2257.752502	1.025969	-0.003111	2.785538
155.738631	2268.783442	1.030973	-0.003171	2.791395
156.146147	2279.807459	1.035978	-0.003250	2.797253
156.316522	2290.826335	1.040983	-0.003285	2.803057
156.795489	2301.836854	1.045988	-0.003377	2.808895
156.987227	2312.870280	1.050992	-0.003416	2.814686
157.289204	2323.891261	1.055997	-0.003475	2.820477
157.568162	2334.888299	1.061002	-0.003530	2.826239
158.116292	2345.918718	1.066006	-0.003636	2.832050
158.219322	2356.936364	1.071011	-0.003658	2.837771
158.739677	2367.954401	1.076016	-0.003758	2.843547
158.972846	2378.987215	1.081021	-0.003805	2.849274
159.300951	2389.992564	1.086025	-0.003869	2.854989
159.474421	2401.032751	1.091030	-0.003904	2.860687
159.953986	2412.030746	1.096035	-0.003997	2.866400
160.239320	2423.049942	1.101039	-0.004053	2.872082
160.693269	2434.065166	1.106044	-0.004141	2.877776
160.966764	2445.082132	1.111049	-0.004195	2.883433
161.433199	2456.128214	1.116054	-0.004286	2.889122
161.654042	2467.146315	1.121058	-0.004330	2.894749
162.169005	2478.133033	1.126063	-0.004429	2.900394
162.374252	2489.159282	1.131068	-0.004470	2.905999
162.595878	2500.221259	1.136073	-0.004515	2.911615
162.914900	2511.178295	1.141077	-0.004577	2.917182
163.402104	2522.230896	1.146082	-0.004671	2.922812
163.709426	2533.220689	1.151087	-0.004732	2.928372
164.181752	2544.269464	1.156091	-0.004823	2.933976
164.321339	2555.269220	1.161096	-0.004852	2.939494
164.944323	2566.275640	1.166101	-0.004972	2.945078
165.087197	2577.338422	1.171106	-0.005001	2.950607
165.820904	2588.287451	1.176110	-0.005142	2.956158
166.097670	2599.372517	1.181115	-0.005196	2.961698
166.343882	2610.376814	1.186120	-0.005245	2.967182
166.822264	2621.368166	1.191125	-0.005338	2.972685
167.127978	2632.416167	1.196129	-0.005398	2.978179
167.466944	2643.401242	1.201134	-0.005464	2.983637
167.935019	2654.470239	1.206139	-0.005555	2.989146
168.282201	2665.434812	1.211143	-0.005622	2.994575
168.554850	2676.500212	1.216148	-0.005676	3.000033
168.938095	2687.473497	1.221153	-0.005751	3.005451
169.479007	2698.524029	1.226158	-0.005855	3.010921
169.833756	2709.534386	1.231162	-0.005925	3.016334
170.196591	2720.541275	1.236167	-0.005995	3.021737
170.535589	2731.551587	1.241172	-0.006062	3.027128
171.045118	2742.580507	1.246177	-0.006160	3.032543
171.683949	2753.578734	1.251181	-0.006283	3.037952
172.203114	2764.598730	1.256186	-0.006383	3.043345
172.514292	2775.678269	1.261191	-0.006444	3.048726
172.959217	2786.638393	1.266195	-0.006530	3.054060
173.245285	2797.680500	1.271200	-0.006586	3.059402
173.837876	2808.681576	1.276205	-0.006700	3.064757
174.138273	2819.707177	1.281210	-0.006760	3.070074
174.563477	2830.738025	1.286214	-0.006842	3.075401
174.961258	2841.748755	1.291219	-0.006919	3.080706
175.265829	2852.788823	1.296224	-0.006979	3.086002
175.473956	2863.772185	1.301228	-0.007021	3.091248
175.893215	2874.777144	1.306233	-0.007102	3.096526
176.351397	2885.804998	1.311238	-0.007191	3.101810
176.922021	2896.827518	1.316243	-0.007301	3.107099
177.096118	2907.840813	1.321247	-0.007336	3.112319
177.726012	2918.875658	1.326252	-0.007457	3.117604
178.022504	2929.889270	1.331257	-0.007516	3.122823
178.419721	2940.923257	1.336262	-0.007593	3.128057
178.893443	2951.904304	1.341266	-0.007684	3.133268
179.341942	2962.940938	1.346271	-0.007771	3.138493
179.664865	2973.960384	1.351276	-0.007835	3.143683
180.140729	2984.990389	1.356280	-0.007927	3.148891
180.480918	2995.969498	1.361285	-0.007993	3.154048
180.994658	3007.025730	1.366290	-0.008092	3.159256
181.427021	3018.012076	1.371295	-0.008176	3.164412
182.009808	3029.047728	1.376299	-0.008288	3.169602
182.244843	3040.070474	1.381304	-0.008335	3.174731
182.881179	3051.057894	1.386309	-0.008457	3.179889
183.176925	3062.096606	1.391314	-0.008516	3.185017
183.733885	3073.109311	1.396318	-0.008623	3.190159
184.085535	3084.121168	1.401323	-0.008691	3.195265
184.483429	3095.166867	1.406328	-0.008769	3.200384
184.725472	3106.168091	1.411332	-0.008817	3.205454
185.212109	3117.192616	1.416337	-0.008911	3.210560
185.301919	3128.200908	1.421342	-0.008931	3.215597
185.910035	3139.184224	1.426347	-0.009047	3.220683
186.218159	3150.237909	1.431351	-0.009108	3.225753
186.699885	3161.241297	1.436356	-0.009201	3.230815
186.968454	3172.262626	1.441361	-0.009254	3.235850
187.561221	3183.280403	1.446366	-0.009368	3.240917
187.783482	3194.308005	1.451370	-0.009413	3.245933
188.409264	3205.302573	1.456375	-0.009533	3.250978
188.455640	3216.369062	1.461380	-0.009544	3.255972
189.161885	3227.318013	1.466384	-0.009679	3.260992
189.513607	3238.378572	1.471389	-0.009748	3.266008
189.944787	3249.392646	1.476394	-0.009832	3.271005
189.966592	3260.412847	1.481399	-0.009839	3.275945
190.546282	3271.406136	1.486403	-0.009950	3.280937
190.945112	3282.443932	1.491408	-0.010028	3.285917
191.367123	3293.461438	1.496413	-0.010110	3.290885
191.734976	3304.453919	1.501417	-0.010181	3.295826
192.252621	3315.495798	1.506422	-0.010281	3.300801
192.531626	3326.512259	1.511427	-0.010336	3.305727
193.060798	3337.509570	1.516432	-0.010438	3.310668
193.188015	3348.554676	1.521436	-0.010465	3.315573
193.577964	3359.548103	1.526441	-0.010541	3.320481
193.899594	3370.586746	1.531446	-0.010604	3.325392
194.430311	3381.600566	1.536451	-0.010706	3.330311
194.561474	3392.607857	1.541455	-0.010734	3.335171
195.245000	3403.609683	1.546460	-0.010865	3.340089
195.767970	3414.620303	1.551465	-0.010965	3.344984
196.301792	3425.645224	1.556469	-0.011068	3.349880
196.599845	3436.667493	1.561474	-0.011127	3.354737
197.120910	3447.684055	1.566479	-0.011227	3.359613
197.308053	3458.722168	1.571484	-0.011265	3.364450
197.854621	3469.736399	1.576488	-0.011371	3.369313
198.052651	3480.706079	1.581493	-0.011410	3.374108
198.552577	3491.771709	1.586498	-0.011507	3.378974
198.919676	3502.738937	1.591503	-0.011579	3.383774
199.316811	3513.788737	1.596507	-0.011656	3.388606
199.440742	3524.811805	1.601512	-0.011682	3.393387
199.873388	3535.837457	1.606517	-0.011766	3.398200
200.281617	3546.808432	1.611521	-0.011845	3.402979
200.701153	3557.879155	1.616526	-0.011927	3.407796
201.003567	3568.859014	1.621531	-0.011986	3.412552
201.376842	3579.894459	1.626536	-0.012059	3.417335
201.542042	3590.904398	1.631540	-0.012092	3.422075
201.972105	3601.932177	1.636545	-0.012176	3.426847
202.340885	3612.915996	1.641550	-0.012248	3.431586
202.816622	3623.966239	1.646555	-0.012340	3.436360
203.269728	3634.952094	1.651559	-0.012428	3.441097
203.725239	3645.992482	1.656564	-0.012516	3.445851
203.993378	3657.000327	1.661569	-0.012569	3.450563
204.506893	3668.022783	1.666573	-0.012668	3.455302
204.868726	3679.026007	1.671578	-0.012738	3.460010
205.159805	3690.055172	1.676583	-0.012796	3.464713
205.390576	3701.095490	1.681588	-0.012842	3.469408
205.642999	3712.093986	1.686592	-0.012892	3.474082
205.772259	3723.107973	1.691597	-0.012919	3.478741
206.368878	3734.108200	1.696602	-0.013034	3.483442
206.662329	3745.137746	1.701606	-0.013091	3.488114
206.877083	3756.135440	1.706611	-0.013134	3.492757
207.529609	3767.145335	1.711616	-0.013260	3.497450
207.898995	3778.167336	1.716621	-0.013332	3.502108
208.224522	3789.205860	1.721625	-0.013395	3.506763
208.638876	3800.213477	1.726630	-0.013476	3.511408
208.774744	3811.239173	1.731635	-0.013504	3.516023
209.313249	3822.221808	1.736640	-0.013608	3.520659
209.816200	3833.260612	1.741644	-0.013705	3.525309
210.169391	3844.301688	1.746649	-0.013774	3.529936
210.445285	3855.264840	1.751654	-0.013829	3.534517
210.974406	3866.305863	1.756658	-0.013931	3.539152
211.271120	3877.330324	1.761663	-0.013989	3.543747
211.642217	3888.351553	1.766668	-0.014061	3.548344
211.918615	3899.350905	1.771673	-0.014116	3.552916
212.301533	3910.362495	1.776677	-0.014190	3.557498
212.568339	3921.381196	1.781682	-0.014243	3.562064
212.993353	3932.418083	1.786687	-0.014326	3.566649
213.148356	3943.398319	1.791692	-0.014358	3.571176
213.616926	3954.441781	1.796696	-0.014448	3.575756
213.830293	3965.461471	1.801701	-0.014491	3.580294
214.210534	3976.477377	1.806706	-0.014565	3.584842
214.547630	3987.480931	1.811710	-0.014631	3.589374
215.021944	3998.491129	1.816715	-0.014723	3.593919
215.422229	4009.512457	1.821720	-0.014801	3.598454
215.744709	4020.545007	1.826725	-0.014864	3.602979
215.997624	4031.545696	1.831729	-0.014914	3.607478
216.463224	4042.569162	1.836734	-0.015004	3.612004
216.762361	4053.560209	1.841739	-0.015063	3.616493
217.226764	4064.589957	1.846744	-0.015153	3.621009
217.595345	4075.601384	1.851748	-0.015225	3.625502
218.031088	4086.624477	1.856753	-0.015309	3.630002
218.146730	4097.654989	1.861758	-0.015334	3.634464
218.678118	4108.711743	1.866762	-0.015436	3.638976
219.139122	4119.706587	1.871767	-0.015525	3.643450
219.571928	4130.758549	1.876772	-0.015609	3.647938
219.799795	4141.733780	1.881777	-0.015655	3.652369
220.202330	4152.773949	1.886781	-0.015733	3.656838
220.538203	4163.763607	1.891786	-0.015799	3.661274
221.159391	4174.806762	1.896791	-0.015918	3.665756
221.357103	4185.824962	1.901795	-0.015958	3.670179
221.668598	4196.828371	1.906800	-0.016019	3.674602
221.921414	4207.839513	1.911805	-0.016069	3.679016
222.423203	4218.862561	1.916810	-0.016166	3.683456
222.656443	4229.893294	1.921814	-0.016213	3.687865
222.896906	4240.888349	1.926819	-0.016260	3.692256
223.341111	4251.891638	1.931824	-0.016346	3.696666
223.851664	4262.903012	1.936829	-0.016445	3.701080
224.172525	4273.935481	1.941833	-0.016508	3.705478
224.396398	4284.963064	1.946838	-0.016553	3.709859
224.864695	4295.966556	1.951843	-0.016643	3.714250
225.165061	4306.981855	1.956847	-0.016702	3.718624
225.491729	4318.017855	1.961852	-0.016766	3.723003
225.839283	4329.035521	1.966857	-0.016834	3.727371
226.157692	4340.020671	1.971862	-0.016897	3.731719
226.537377	4351.050065	1.976866	-0.016971	3.736085
226.795573	4362.057066	1.981871	-0.017022	3.740425
