Wed Nov 23 17:12:02 2022

Number of Points = 2200
Depth (nm)	Load (µN)	Time (s)	Depth (V)	Load (V)
-5.727739	0.282868	0.000000	0.071003	0.837730
0.000000	5.471045	0.005005	0.069927	0.850594
2.986509	14.697623	0.010009	0.069364	0.868428
4.894640	25.529283	0.015014	0.069004	0.887912
6.134473	36.803132	0.020019	0.068768	0.907293
7.454302	48.035710	0.025024	0.068518	0.926248
8.473791	59.322633	0.030028	0.068324	0.944732
9.804788	70.503972	0.035033	0.068071	0.962876
10.365791	81.868658	0.040038	0.067963	0.980528
11.209014	93.039862	0.045043	0.067802	0.997736
11.630618	104.306826	0.050047	0.067720	1.014563
12.473239	115.402973	0.055052	0.067559	1.031094
13.198110	126.584363	0.060057	0.067420	1.047422
13.721349	137.782938	0.065061	0.067320	1.063419
14.310305	148.926356	0.070066	0.067206	1.079136
14.884184	160.067841	0.075071	0.067096	1.094616
15.414118	171.216986	0.080076	0.066994	1.109869
16.201419	182.311168	0.085080	0.066843	1.124968
16.761439	193.455037	0.090085	0.066735	1.139821
17.215268	204.612267	0.095090	0.066647	1.154450
17.739880	215.716401	0.100094	0.066546	1.168861
18.177519	226.868779	0.105099	0.066461	1.183117
18.730609	237.924636	0.110104	0.066355	1.197136
19.309581	249.048900	0.115109	0.066243	1.211087
19.650556	260.185941	0.120113	0.066177	1.224789
20.095570	271.286310	0.125118	0.066090	1.238341
20.349321	282.405887	0.130123	0.066040	1.251686
20.958943	293.431822	0.135128	0.065923	1.264932
21.547745	304.514317	0.140132	0.065810	1.278097
22.170430	315.609818	0.145137	0.065690	1.291157
22.567307	326.780411	0.150142	0.065613	1.304078
22.834332	337.888740	0.155146	0.065560	1.316748
23.254524	348.886254	0.160151	0.065478	1.329236
23.819289	359.960509	0.165156	0.065370	1.341750
24.201230	371.043296	0.170161	0.065295	1.354085
24.607406	382.141598	0.175165	0.065216	1.366335
24.879317	393.250846	0.180170	0.065163	1.378435
25.248595	404.295883	0.185175	0.065091	1.390399
25.539220	415.369311	0.190180	0.065033	1.402260
26.008752	426.407707	0.195184	0.064942	1.414053
51.689019	431.946106	0.200189	0.060122	1.429500
60.290039	447.255524	0.205194	0.058505	1.448448
60.651458	459.508255	0.210198	0.058434	1.461048
61.223222	470.696374	0.215203	0.058324	1.472547
61.942854	481.730127	0.220208	0.058186	1.483855
63.214987	492.720117	0.225213	0.057945	1.495231
64.000799	503.839242	0.230217	0.057794	1.506476
65.133975	514.849804	0.235222	0.057579	1.517653
65.933794	525.953545	0.240227	0.057426	1.528721
67.126398	536.965674	0.245232	0.057200	1.539757
68.011723	548.068556	0.250236	0.057031	1.550695
68.825576	559.136752	0.255241	0.056875	1.561499
69.555254	570.181753	0.260246	0.056736	1.572178
70.596255	581.223296	0.265250	0.056538	1.582886
71.416798	592.284704	0.270255	0.056381	1.593466
72.328332	603.325961	0.275260	0.056207	1.603988
73.048945	614.424666	0.280265	0.056069	1.614430
73.999249	625.440363	0.285269	0.055888	1.624805
74.805158	636.499530	0.290274	0.055734	1.635105
75.554141	647.572848	0.295279	0.055591	1.645335
76.467678	658.574112	0.300283	0.055417	1.655490
77.512946	669.612146	0.305288	0.055218	1.665656
78.228220	680.698309	0.310293	0.055081	1.675699
79.126058	691.736546	0.315298	0.054910	1.685697
79.907904	702.787728	0.320302	0.054760	1.695611
80.622673	713.843001	0.325307	0.054624	1.705449
81.394661	724.898626	0.330312	0.054476	1.715249
82.261716	735.898450	0.335317	0.054311	1.724974
83.323961	746.936390	0.340321	0.054109	1.734735
84.164782	758.017385	0.345326	0.053948	1.744411
84.797842	769.052396	0.350331	0.053826	1.753932
86.120562	780.024723	0.355335	0.053576	1.763553
86.860247	791.150458	0.360340	0.053434	1.773079
87.699186	802.180014	0.365345	0.053274	1.782502
88.446986	813.223652	0.370350	0.053131	1.791860
88.971304	824.313820	0.375354	0.053030	1.801143
89.918832	835.266049	0.380359	0.052849	1.810386
90.653166	846.349448	0.385364	0.052709	1.819629
91.715752	857.325428	0.390369	0.052507	1.828830
92.566415	868.435026	0.395373	0.052344	1.838033
92.849217	879.525781	0.400378	0.052288	1.847015
93.889804	890.486471	0.405383	0.052090	1.856061
94.492213	901.540987	0.410387	0.051975	1.865015
95.510579	912.536156	0.415392	0.051781	1.873995
96.253881	923.619950	0.420397	0.051639	1.882925
97.192913	934.627405	0.425402	0.051460	1.891807
97.663895	945.729312	0.430406	0.051369	1.900593
98.145137	956.759405	0.435411	0.051276	1.909286
98.957023	967.742353	0.440416	0.051120	1.917991
99.642517	978.798950	0.445421	0.050989	1.926680
100.300293	989.858798	0.450425	0.050863	1.935324
100.993688	1000.877182	0.455430	0.050730	1.943907
101.424608	1011.920476	0.460435	0.050647	1.952403
102.280481	1022.922870	0.465439	0.050483	1.960941
103.178337	1033.927490	0.470444	0.050312	1.969455
104.271895	1044.975629	0.475449	0.050104	1.978015
104.714951	1056.081713	0.480454	0.050018	1.986413
105.358174	1067.098257	0.485458	0.049895	1.994761
105.812462	1078.143899	0.490463	0.049807	2.003047
106.421503	1089.157459	0.495468	0.049690	2.011314
107.361722	1100.152032	0.500472	0.049511	2.019617
108.377820	1111.151414	0.505477	0.049317	2.027907
108.744221	1122.308229	0.510482	0.049246	2.036116
109.336494	1133.281990	0.515487	0.049132	2.044216
110.102924	1144.294043	0.520491	0.048985	2.052353
110.941036	1155.320026	0.525496	0.048825	2.060486
111.619899	1166.358183	0.530501	0.048695	2.068557
112.367380	1177.387055	0.535506	0.048552	2.076606
112.819515	1188.468699	0.540510	0.048465	2.084589
113.430314	1199.469699	0.545515	0.048347	2.092523
113.873591	1210.526228	0.550520	0.048261	2.100425
114.776424	1221.463209	0.555524	0.048089	2.108324
115.419088	1232.568444	0.560529	0.047966	2.116249
116.133806	1243.563024	0.565534	0.047829	2.124084
116.791231	1254.594046	0.570539	0.047703	2.131901
117.432103	1265.657961	0.575543	0.047580	2.139709
118.120473	1276.642806	0.580548	0.047448	2.147444
118.951307	1287.687805	0.585553	0.047290	2.155226
119.443015	1298.726345	0.590558	0.047195	2.162897
119.982208	1309.793714	0.595562	0.047091	2.170571
120.460883	1320.798641	0.600567	0.046998	2.178161
121.034426	1331.801053	0.605572	0.046888	2.185745
121.849178	1342.818208	0.610576	0.046732	2.193367
122.480694	1353.860987	0.615581	0.046611	2.200938
123.166085	1364.876929	0.620586	0.046480	2.208477
123.824235	1375.949104	0.625591	0.046353	2.216022
124.508628	1386.913709	0.630595	0.046222	2.223475
125.250598	1397.962916	0.635600	0.046080	2.230972
125.830024	1409.018448	0.640605	0.045969	2.238412
126.798666	1419.986979	0.645610	0.045784	2.245855
127.164278	1431.091677	0.650614	0.045713	2.253230
127.671928	1442.106013	0.655619	0.045615	2.260553
128.276470	1453.100517	0.660624	0.045499	2.267860
129.213452	1464.085129	0.665628	0.045320	2.275210
130.018100	1475.154960	0.670633	0.045167	2.282562
130.582887	1486.192487	0.675638	0.045058	2.289817
131.030446	1497.215563	0.680643	0.044971	2.297015
131.691233	1508.239595	0.685647	0.044844	2.304237
132.112581	1519.267024	0.690652	0.044763	2.311387
132.903671	1530.268387	0.695657	0.044611	2.318576
133.464167	1541.326879	0.700661	0.044504	2.325731
133.930120	1552.358852	0.705666	0.044413	2.332827
134.185501	1563.405625	0.710671	0.044363	2.339866
134.974654	1574.357787	0.715676	0.044212	2.346936
135.734293	1585.393824	0.720680	0.044067	2.354031
136.490324	1596.425905	0.725685	0.043922	2.361101
136.881529	1607.481659	0.730690	0.043846	2.368089
137.403926	1618.510744	0.735695	0.043745	2.375067
137.652534	1629.528909	0.740699	0.043696	2.381961
138.391158	1640.532966	0.745704	0.043554	2.388927
138.960829	1651.553626	0.750709	0.043445	2.395848
139.657053	1662.575488	0.755713	0.043311	2.402775
139.996789	1673.647057	0.760718	0.043245	2.409640
140.691822	1684.626169	0.765723	0.043112	2.416501
141.233201	1695.652212	0.770728	0.043008	2.423340
142.159013	1706.630445	0.775732	0.042831	2.430208
142.889928	1717.684245	0.780737	0.042691	2.437062
143.432211	1728.734763	0.785742	0.042587	2.443858
143.788090	1739.787027	0.790747	0.042517	2.450599
144.380351	1750.750558	0.795751	0.042403	2.457315
144.964405	1761.805725	0.800756	0.042291	2.464065
145.357117	1772.842581	0.805761	0.042215	2.470749
145.824418	1783.858328	0.810765	0.042124	2.477416
145.981530	1794.924764	0.815770	0.042092	2.484035
146.447554	1805.882900	0.820775	0.042002	2.490632
147.215799	1816.898263	0.825780	0.041855	2.497303
147.776095	1827.931673	0.830784	0.041747	2.503927
148.667892	1838.917349	0.835789	0.041577	2.510569
149.119056	1849.986323	0.840794	0.041490	2.517158
149.878756	1860.996045	0.845799	0.041344	2.523753
150.597484	1871.985826	0.850803	0.041207	2.530312
151.286922	1883.048429	0.855808	0.041075	2.536890
151.764032	1894.096532	0.860813	0.040982	2.543403
152.327830	1905.076603	0.865817	0.040874	2.549875
152.841966	1916.120603	0.870822	0.040775	2.556359
153.451695	1927.124859	0.875827	0.040658	2.562821
154.012855	1938.152769	0.880832	0.040550	2.569272
154.684381	1949.234889	0.885836	0.040421	2.575757
154.915262	1960.230868	0.890841	0.040375	2.582095
155.543463	1971.204659	0.895846	0.040254	2.588478
156.116705	1982.257538	0.900850	0.040144	2.594881
156.409473	1993.282536	0.905855	0.040086	2.601200
156.992156	2004.273728	0.910860	0.039974	2.607537
157.525071	2015.330794	0.915865	0.039871	2.613887
157.876085	2026.317492	0.920869	0.039803	2.620149
158.414192	2037.360785	0.925874	0.039699	2.626462
158.822247	2048.374416	0.930879	0.039620	2.632719
159.480842	2059.355713	0.935884	0.039494	2.638987
159.765485	2070.420966	0.940888	0.039437	2.645221
160.304813	2081.415534	0.945893	0.039333	2.651447
160.540126	2092.480955	0.950898	0.039287	2.657643
160.969263	2103.447182	0.955902	0.039203	2.663803
161.718515	2114.444294	0.960907	0.039060	2.670023
162.410746	2125.488425	0.965912	0.038927	2.676244
162.742756	2136.533954	0.970917	0.038862	2.682388
163.455764	2147.524233	0.975921	0.038726	2.688554
163.736718	2158.577835	0.980926	0.038670	2.694665
164.418088	2169.548433	0.985931	0.038540	2.700786
164.985610	2180.601423	0.990936	0.038431	2.706919
165.716606	2191.603321	0.995940	0.038291	2.713038
165.973585	2202.651830	1.000945	0.038240	2.719087
166.663212	2213.649338	1.005950	0.038108	2.725168
167.261057	2224.694871	1.010954	0.037993	2.731247
167.601858	2235.698496	1.015959	0.037926	2.737245
168.015878	2246.743121	1.020964	0.037846	2.743264
168.675938	2257.707301	1.025969	0.037719	2.749269
168.866481	2268.804084	1.030973	0.037681	2.755252
169.254411	2279.781550	1.035978	0.037605	2.761192
169.759165	2290.803303	1.040983	0.037508	2.767162
170.234445	2301.820600	1.045988	0.037416	2.773111
170.865262	2312.821137	1.050992	0.037295	2.779065
171.461531	2323.859212	1.055997	0.037180	2.785020
171.847501	2334.893466	1.061002	0.037105	2.790925
172.158599	2345.907491	1.066006	0.037044	2.796795
172.531427	2356.951292	1.071011	0.036971	2.802678
173.052786	2367.929730	1.076016	0.036871	2.808539
173.546205	2378.971991	1.081021	0.036775	2.814416
173.976026	2389.981349	1.086025	0.036692	2.820253
174.379704	2401.002438	1.091030	0.036613	2.826080
174.851534	2412.013639	1.096035	0.036522	2.831901
175.289341	2423.038209	1.101039	0.036437	2.837711
176.016537	2434.023947	1.106044	0.036298	2.843535
176.263672	2445.104493	1.111049	0.036249	2.849319
176.805075	2456.092720	1.116054	0.036145	2.855091
177.180633	2467.126619	1.121058	0.036071	2.860849
177.540949	2478.146665	1.126063	0.036001	2.866585
177.968702	2489.166602	1.131068	0.035918	2.872320
178.374410	2500.165940	1.136073	0.035839	2.878029
178.791137	2511.188486	1.141077	0.035758	2.883741
179.414500	2522.213865	1.146082	0.035639	2.889475
180.052691	2533.221194	1.151087	0.035516	2.895191
180.592399	2544.243206	1.156091	0.035412	2.900887
181.065304	2555.266803	1.161096	0.035321	2.906563
181.588327	2566.284830	1.166101	0.035220	2.912232
182.093578	2577.294574	1.171106	0.035122	2.917883
182.632967	2588.331283	1.176110	0.035018	2.923542
183.099783	2599.339664	1.181115	0.034928	2.929165
183.589465	2610.357175	1.186120	0.034833	2.934784
184.077710	2621.370059	1.191125	0.034739	2.940390
184.422121	2632.415307	1.196129	0.034672	2.945980
184.927845	2643.411605	1.201134	0.034574	2.951559
185.449398	2654.430737	1.206139	0.034473	2.957141
185.834851	2665.462484	1.211143	0.034398	2.962698
186.286077	2676.464021	1.216148	0.034311	2.968240
186.349372	2687.524972	1.221153	0.034296	2.973742
186.915368	2698.483833	1.226158	0.034188	2.979259
187.475967	2709.534134	1.231162	0.034080	2.984810
188.112070	2720.527763	1.236167	0.033957	2.990334
188.514062	2731.575758	1.241172	0.033879	2.995839
188.905409	2742.573434	1.246177	0.033803	3.001308
189.357911	2753.623441	1.251181	0.033716	3.006801
189.725368	2764.620341	1.256186	0.033644	3.012246
190.113546	2775.625567	1.261191	0.033568	3.017688
190.664819	2786.650045	1.266195	0.033462	3.023153
190.962271	2797.702111	1.271200	0.033404	3.028585
191.315602	2808.685667	1.276205	0.033335	3.033982
191.921063	2819.713287	1.281210	0.033218	3.039427
192.451256	2830.705284	1.286214	0.033116	3.044834
192.911074	2841.766227	1.291219	0.033027	3.050254
193.429647	2852.767707	1.296224	0.032927	3.055645
193.848384	2863.774303	1.301228	0.032846	3.061014
194.179171	2874.791233	1.306233	0.032781	3.066365
194.557455	2885.827919	1.311238	0.032707	3.071724
194.928009	2896.831889	1.316243	0.032635	3.077056
195.295103	2907.877260	1.321247	0.032563	3.082399
195.970896	2918.847817	1.326252	0.032434	3.087740
196.435920	2929.894154	1.331257	0.032344	3.093078
196.926160	2940.883082	1.336262	0.032249	3.098383
197.573933	2951.918262	1.341266	0.032125	3.103723
197.863372	2962.954882	1.346271	0.032068	3.109004
198.374130	2973.948401	1.351276	0.031969	3.114286
198.821533	2984.991089	1.356280	0.031883	3.119574
199.118224	2996.018783	1.361285	0.031824	3.124824
199.536824	3007.020105	1.366290	0.031743	3.130071
200.185900	3018.024180	1.371295	0.031618	3.135341
200.675904	3029.023829	1.376299	0.031524	3.140579
201.111911	3040.083554	1.381304	0.031439	3.145828
201.241018	3051.094978	1.386309	0.031412	3.151004
201.621677	3062.095561	1.391314	0.031338	3.156200
202.010609	3073.120283	1.396318	0.031262	3.161400
202.493679	3084.144703	1.401323	0.031169	3.166605
202.904547	3095.134372	1.406328	0.031089	3.171775
203.167731	3106.188957	1.411332	0.031037	3.176946
203.573567	3117.180408	1.416337	0.030958	3.182099
203.997972	3128.205600	1.421342	0.030876	3.187261
204.688848	3139.202501	1.426347	0.030743	3.192438
205.112126	3150.235004	1.431351	0.030661	3.197587
205.660329	3161.251410	1.436356	0.030556	3.202737
206.163736	3172.289636	1.441361	0.030458	3.207882
206.411145	3183.290536	1.446366	0.030409	3.212968
206.792003	3194.326952	1.451370	0.030335	3.218079
207.288530	3205.299325	1.456375	0.030239	3.223169
207.701047	3216.359682	1.461380	0.030159	3.228279
208.031108	3227.365318	1.466384	0.030094	3.233346
208.365409	3238.388703	1.471389	0.030029	3.238413
208.909863	3249.370386	1.476394	0.029924	3.243480
209.300245	3260.439012	1.481399	0.029848	3.248559
209.566585	3271.426082	1.486403	0.029795	3.253577
210.188589	3282.446662	1.491408	0.029676	3.258648
210.583464	3293.450171	1.496413	0.029599	3.263674
211.023164	3304.478928	1.501417	0.029514	3.268710
211.476457	3315.491431	1.506422	0.029426	3.273732
211.972307	3326.513265	1.511427	0.029330	3.278756
212.285624	3337.520664	1.516432	0.029269	3.283742
212.664219	3348.577267	1.521436	0.029195	3.288751
213.138678	3359.546975	1.526441	0.029103	3.293726
213.666146	3370.584267	1.531446	0.029002	3.298730
214.000024	3381.583555	1.536451	0.028936	3.303684
214.449140	3392.638307	1.541455	0.028849	3.308671
214.856964	3403.611074	1.546460	0.028770	3.313608
215.251792	3414.649991	1.551465	0.028693	3.318565
215.486243	3425.669047	1.556469	0.028646	3.323486
215.974922	3436.698034	1.561474	0.028552	3.328436
216.172873	3447.697210	1.566479	0.028512	3.333329
216.602771	3458.707815	1.571484	0.028429	3.338249
216.922582	3469.738641	1.576488	0.028366	3.343156
217.290924	3480.763759	1.581493	0.028294	3.348060
217.691724	3491.739425	1.586498	0.028216	3.352938
218.119867	3502.799138	1.591503	0.028133	3.357850
218.689621	3513.776424	1.596507	0.028024	3.362736
219.174343	3524.829139	1.601512	0.027930	3.367637
219.599249	3535.819550	1.606517	0.027847	3.372497
219.966182	3546.848965	1.611521	0.027776	3.377359
220.599084	3557.835699	1.616526	0.027654	3.382228
221.068005	3568.894218	1.621531	0.027564	3.387101
221.578637	3579.874809	1.626536	0.027465	3.391939
222.078647	3590.916277	1.631540	0.027369	3.396794
222.417062	3601.915474	1.636545	0.027302	3.401604
222.803665	3612.971943	1.641550	0.027227	3.406438
223.063152	3623.941965	1.646555	0.027176	3.411213
223.464815	3634.992157	1.651559	0.027098	3.416032
224.001715	3645.985165	1.656564	0.026994	3.420836
224.369184	3657.021702	1.661569	0.026922	3.425632
224.633373	3668.033012	1.666573	0.026870	3.430398
224.938654	3679.052116	1.671578	0.026810	3.435165
225.486492	3690.039929	1.676583	0.026705	3.439941
226.049290	3701.097770	1.681588	0.026596	3.444742
226.475078	3712.099902	1.686592	0.026514	3.449496
226.875790	3723.112846	1.691597	0.026436	3.454246
227.160884	3734.131508	1.696602	0.026379	3.458977
227.605856	3745.155152	1.701606	0.026293	3.463723
227.963185	3756.153110	1.706611	0.026223	3.468441
228.448934	3767.166325	1.711616	0.026130	3.473174
228.676033	3778.210938	1.716621	0.026084	3.477883
229.086742	3789.203295	1.721625	0.026004	3.482586
229.398870	3800.235013	1.726630	0.025943	3.487287
229.714678	3811.245393	1.731635	0.025881	3.491973
230.162944	3822.244932	1.736640	0.025794	3.496663
230.477586	3833.282150	1.741644	0.025733	3.501348
230.701372	3844.306554	1.746649	0.025688	3.506010
231.104717	3855.293813	1.751654	0.025609	3.510671
231.318537	3866.324688	1.756658	0.025567	3.515323
231.629206	3877.348445	1.761663	0.025506	3.519976
232.091520	3888.341299	1.766668	0.025416	3.524628
232.632125	3899.382393	1.771673	0.025312	3.529302
232.977360	3910.384654	1.776677	0.025244	3.533932
233.487023	3921.420001	1.781682	0.025146	3.538587
234.019141	3932.401204	1.786687	0.025043	3.543217
234.451344	3943.437864	1.791692	0.024960	3.547852
234.867029	3954.432105	1.796696	0.024879	3.552462
235.251134	3965.470653	1.801701	0.024804	3.557080
235.713430	3976.466560	1.806706	0.024715	3.561684
235.934192	3987.526415	1.811710	0.024671	3.566281
236.459416	3998.471774	1.816715	0.024569	3.570858
236.850312	4009.545104	1.821720	0.024493	3.575467
237.144113	4020.526440	1.826725	0.024435	3.580022
237.388004	4031.593167	1.831729	0.024387	3.584600
237.816436	4042.561613	1.836734	0.024304	3.589153
237.964112	4053.617363	1.841739	0.024273	3.593705
238.332892	4064.605936	1.846744	0.024201	3.598247
238.733504	4075.646024	1.851748	0.024123	3.602808
238.964420	4086.644913	1.856753	0.024077	3.607328
239.374767	4097.684915	1.861758	0.023998	3.611879
239.707637	4108.709295	1.866762	0.023932	3.616409
240.002641	4119.744844	1.871767	0.023874	3.620934
240.473104	4130.737782	1.876772	0.023783	3.625454
240.649533	4141.773799	1.881777	0.023748	3.629955
241.052761	4152.771147	1.886781	0.023669	3.634459
241.417821	4163.811133	1.891786	0.023598	3.638970
241.791744	4174.794079	1.896791	0.023525	3.643454
242.250088	4185.858997	1.901795	0.023436	3.647974
242.654765	4196.812909	1.906800	0.023358	3.652438
242.840328	4207.881863	1.911805	0.023320	3.656919
243.223423	4218.837946	1.916810	0.023245	3.661370
243.723777	4229.904992	1.921814	0.023149	3.665873
243.966253	4240.900747	1.926819	0.023101	3.670314
244.376200	4251.948547	1.931824	0.023021	3.674789
244.718010	4262.916570	1.936829	0.022954	3.679219
245.057412	4273.984628	1.941833	0.022888	3.683683
245.491527	4284.971233	1.946838	0.022804	3.688119
245.789183	4295.986056	1.951843	0.022745	3.692547
246.108590	4306.978113	1.956847	0.022682	3.696962
246.488385	4318.012532	1.961852	0.022608	3.701395
246.672474	4329.055835	1.966857	0.022571	3.705806
247.013440	4340.042456	1.971862	0.022504	3.710206
247.266700	4351.061326	1.976866	0.022454	3.714604
247.600359	4362.089114	1.981871	0.022389	3.719008
248.026052	4373.073990	1.986876	0.022306	3.723400
248.473364	4384.126651	1.991881	0.022219	3.727815
248.831526	4395.124161	1.996885	0.022150	3.732195
249.251940	4406.140160	2.001890	0.022068	3.736582
249.469684	4417.152139	2.006895	0.022024	3.740943
