Wed Nov 23 18:47:16 2022

Number of Points = 2200
Depth (nm)	Load (µN)	Time (s)	Depth (V)	Load (V)
-1.984403	1.317838	0.000000	-0.003109	1.066459
0.000000	7.743310	0.005005	-0.003483	1.076267
1.964706	17.134845	0.010009	-0.003854	1.089978
2.986678	28.034641	0.015014	-0.004048	1.105059
4.026487	39.094623	0.020019	-0.004246	1.120156
4.753969	50.280087	0.025024	-0.004385	1.135064
5.749203	61.374506	0.030028	-0.004575	1.149788
6.262118	72.560378	0.035033	-0.004674	1.164217
6.833431	83.703840	0.040038	-0.004784	1.178443
7.300218	94.801135	0.045043	-0.004874	1.192395
7.904752	105.909846	0.050047	-0.004990	1.206261
8.383188	117.032247	0.055052	-0.005083	1.219929
9.037576	128.103581	0.060057	-0.005208	1.233461
9.351341	139.253774	0.065061	-0.005270	1.246793
9.750071	150.352824	0.070066	-0.005348	1.259959
10.051328	161.443663	0.075071	-0.005407	1.272939
10.615436	172.491794	0.080076	-0.005515	1.285848
11.176946	183.577399	0.085080	-0.005623	1.298670
11.539178	194.736532	0.090085	-0.005694	1.311367
11.882551	205.785373	0.095090	-0.005761	1.323812
17.417115	215.241459	0.100094	-0.006802	1.336465
28.843873	226.184056	0.105099	-0.008949	1.352933
29.783466	238.687526	0.110104	-0.009128	1.366788
30.973365	249.906514	0.115109	-0.009354	1.379235
32.093687	261.029114	0.120113	-0.009567	1.391441
32.932292	272.152181	0.125118	-0.009728	1.403435
33.908598	283.210430	0.130123	-0.009914	1.415310
34.987716	294.220870	0.135128	-0.010119	1.427075
36.279308	305.291567	0.140132	-0.010364	1.438883
37.525698	316.339461	0.145137	-0.010600	1.450555
38.729982	327.441534	0.150142	-0.010829	1.462172
39.556503	338.526136	0.155146	-0.010987	1.473544
41.110979	349.493364	0.160151	-0.011281	1.484971
42.128536	360.643771	0.165156	-0.011475	1.496300
43.280834	371.697640	0.170161	-0.011694	1.507496
44.172664	382.782306	0.175165	-0.011864	1.518549
45.342207	393.814056	0.180170	-0.012086	1.529566
46.151321	404.927763	0.185175	-0.012241	1.540459
47.295473	415.904270	0.190180	-0.012458	1.551259
48.381823	427.006965	0.195184	-0.012665	1.562082
49.378256	438.034632	0.200189	-0.012855	1.572731
50.132830	449.166287	0.205194	-0.012999	1.583323
50.883144	460.210466	0.210198	-0.013142	1.593763
51.723305	471.245624	0.215203	-0.013303	1.604155
52.799257	482.263340	0.220208	-0.013507	1.614541
53.614332	493.346091	0.225213	-0.013663	1.624835
54.748455	504.367872	0.230217	-0.013879	1.635110
55.314499	515.457590	0.235222	-0.013988	1.645201
56.692635	526.408628	0.240227	-0.014249	1.655363
57.628181	537.516207	0.245232	-0.014427	1.665462
58.732187	548.536738	0.250236	-0.014637	1.675476
59.328297	559.671347	0.255241	-0.014752	1.685372
60.095525	570.689218	0.260246	-0.014898	1.695162
60.873289	581.721443	0.265250	-0.015047	1.704911
61.862471	592.738377	0.270255	-0.015235	1.714654
62.880234	603.761718	0.275260	-0.015429	1.724356
64.155404	614.788955	0.280265	-0.015671	1.734084
65.005216	625.888316	0.285269	-0.015833	1.743691
65.736532	636.942762	0.290274	-0.015973	1.753172
66.483979	648.008055	0.295279	-0.016116	1.762616
67.591200	658.966740	0.300283	-0.016327	1.772026
68.515892	670.054453	0.305288	-0.016503	1.781439
69.438216	681.080578	0.310293	-0.016679	1.790751
70.269792	692.134410	0.315298	-0.016838	1.800010
71.360523	703.152522	0.320302	-0.017045	1.809267
72.166762	714.208539	0.325307	-0.017199	1.818426
73.029596	725.240362	0.330312	-0.017364	1.827536
73.823165	736.313248	0.335317	-0.017515	1.836613
75.074276	747.280378	0.340321	-0.017753	1.845689
75.750760	758.397813	0.345326	-0.017882	1.854679
76.686013	769.402295	0.350331	-0.018061	1.863608
77.374871	780.451078	0.355335	-0.018193	1.872462
78.103885	791.526352	0.360340	-0.018332	1.881305
79.049432	802.472925	0.365345	-0.018512	1.890065
79.907669	813.575030	0.370350	-0.018676	1.898881
80.418955	824.631711	0.375354	-0.018775	1.907528
81.217387	835.639022	0.380359	-0.018927	1.916174
82.003200	846.654422	0.385364	-0.019077	1.924784
83.255002	857.654979	0.390369	-0.019315	1.933467
83.918024	868.748757	0.395373	-0.019442	1.942026
84.502968	879.808958	0.400378	-0.019555	1.950503
85.386808	890.767194	0.405383	-0.019723	1.958943
86.031113	901.864881	0.410387	-0.019847	1.967389
86.783488	912.884221	0.415392	-0.019991	1.975768
87.912094	923.851368	0.420397	-0.020205	1.984169
88.455411	934.959674	0.425402	-0.020310	1.992489
89.281060	945.969526	0.430406	-0.020468	2.000774
89.759557	957.040582	0.435411	-0.020560	2.008981
90.738136	968.014406	0.440416	-0.020747	2.017209
91.387433	979.077092	0.445421	-0.020871	2.025386
92.194630	990.096732	0.450425	-0.021025	2.033538
92.683424	1001.166494	0.455430	-0.021120	2.041614
93.524562	1012.154917	0.460435	-0.021280	2.049687
94.021596	1023.216184	0.465439	-0.021376	2.057695
94.958641	1034.212012	0.470444	-0.021555	2.065733
95.607001	1045.305395	0.475449	-0.021679	2.073738
96.185581	1056.292766	0.480454	-0.021791	2.081621
96.843627	1067.345032	0.485458	-0.021917	2.089539
97.594535	1078.368593	0.490463	-0.022060	2.097428
98.272384	1089.376714	0.495468	-0.022190	2.105259
99.416985	1100.377779	0.500472	-0.022408	2.113167
99.979650	1111.457258	0.505477	-0.022516	2.120961
100.636976	1122.504423	0.510482	-0.022642	2.128727
101.102498	1133.527975	0.515487	-0.022732	2.136404
101.768993	1144.531210	0.520491	-0.022860	2.144086
102.405727	1155.549661	0.525496	-0.022982	2.151743
103.491095	1166.559338	0.530501	-0.023189	2.159470
103.886692	1177.655672	0.535506	-0.023266	2.167070
104.398770	1188.703168	0.540510	-0.023364	2.174637
105.027975	1199.664662	0.545515	-0.023485	2.182147
105.602220	1210.726081	0.550520	-0.023596	2.189685
106.185839	1221.736332	0.555524	-0.023708	2.197164
106.719715	1232.804014	0.560529	-0.023811	2.204645
107.426170	1243.746480	0.565534	-0.023946	2.212057
108.307726	1254.800777	0.570539	-0.024114	2.219555
108.824554	1265.853156	0.575543	-0.024214	2.226947
109.734658	1276.846166	0.580548	-0.024387	2.234361
110.260833	1287.907780	0.585553	-0.024489	2.241711
110.902102	1298.947654	0.590558	-0.024612	2.249048
111.381257	1309.973082	0.595562	-0.024705	2.256316
111.929929	1320.998831	0.600567	-0.024810	2.263576
112.236640	1332.037410	0.605572	-0.024871	2.270769
113.032378	1343.002853	0.610576	-0.025023	2.277996
113.431469	1354.081730	0.615581	-0.025100	2.285189
114.280572	1365.043215	0.620586	-0.025262	2.292379
115.003724	1376.089593	0.625591	-0.025401	2.299575
115.556876	1387.147404	0.630595	-0.025507	2.306718
116.026410	1398.194673	0.635600	-0.025598	2.313816
116.359795	1409.203049	0.640605	-0.025663	2.320838
117.073416	1420.182153	0.645610	-0.025800	2.327900
117.851690	1431.232089	0.650614	-0.025949	2.334998
118.598521	1442.231897	0.655619	-0.026092	2.342037
119.425272	1453.278121	0.660624	-0.026250	2.349099
119.882877	1464.321698	0.665628	-0.026338	2.356063
120.494958	1475.316362	0.670633	-0.026456	2.363007
120.939942	1486.379552	0.675638	-0.026542	2.369939
121.400285	1497.407893	0.680643	-0.026631	2.376832
121.724963	1508.444284	0.685647	-0.026695	2.383683
122.481698	1519.376225	0.690652	-0.026839	2.390537
123.145516	1530.467201	0.695657	-0.026967	2.397449
123.715156	1541.492149	0.700661	-0.027076	2.404283
124.035908	1552.519224	0.705666	-0.027139	2.411048
124.742298	1563.520308	0.710671	-0.027274	2.417856
125.267821	1574.544765	0.715676	-0.027376	2.424622
125.950046	1585.566590	0.720680	-0.027507	2.431399
126.614906	1596.577763	0.725685	-0.027634	2.438147
127.096560	1607.639944	0.730690	-0.027727	2.444870
127.545671	1618.649517	0.735695	-0.027814	2.451537
128.074592	1629.669707	0.740699	-0.027916	2.458208
128.506029	1640.695358	0.745704	-0.028000	2.464845
129.111732	1651.716186	0.750709	-0.028116	2.471495
129.652909	1662.728059	0.755713	-0.028220	2.478109
130.266910	1673.755201	0.760718	-0.028338	2.484728
130.677010	1684.785903	0.765723	-0.028418	2.491292
131.162997	1695.825116	0.770728	-0.028512	2.497859
131.742743	1706.825711	0.775732	-0.028624	2.504403
132.072454	1717.879664	0.780737	-0.028688	2.510914
132.444376	1728.871481	0.785742	-0.028761	2.517380
132.983966	1739.903805	0.790747	-0.028865	2.523884
133.836291	1750.876099	0.795751	-0.029027	2.530395
134.429967	1761.939250	0.800756	-0.029141	2.536893
134.831531	1772.976658	0.805761	-0.029219	2.543324
135.417054	1783.962286	0.810765	-0.029332	2.549743
135.808952	1795.025456	0.815770	-0.029408	2.556154
136.258423	1806.037984	0.820775	-0.029495	2.562531
136.812242	1817.043907	0.825780	-0.029602	2.568907
137.436768	1828.133278	0.830784	-0.029722	2.575327
137.663461	1839.130707	0.835789	-0.029767	2.581607
138.015908	1850.125381	0.840794	-0.029836	2.587892
138.540970	1861.124332	0.845799	-0.029937	2.594196
139.129564	1872.127915	0.850803	-0.030051	2.600499
139.605790	1883.186332	0.855808	-0.030143	2.606797
140.388122	1894.194920	0.860813	-0.030292	2.613106
140.691239	1905.218750	0.865817	-0.030352	2.619323
141.245823	1916.226483	0.870822	-0.030459	2.625560
141.654635	1927.287120	0.875827	-0.030538	2.631787
142.142030	1938.294284	0.880832	-0.030632	2.637983
142.487660	1949.311859	0.885836	-0.030700	2.644145
143.107613	1960.301180	0.890841	-0.030819	2.650325
143.385753	1971.398358	0.895846	-0.030874	2.656490
144.003534	1982.339414	0.900850	-0.030992	2.662614
144.442006	1993.382144	0.905855	-0.031077	2.668748
145.040166	2004.396269	0.910860	-0.031192	2.674880
145.458092	2015.455739	0.915865	-0.031273	2.680992
145.928263	2026.443586	0.920869	-0.031364	2.687060
146.395452	2037.494625	0.925874	-0.031455	2.693147
146.862161	2048.455600	0.930879	-0.031545	2.699172
147.387686	2059.478565	0.935884	-0.031646	2.705227
147.887183	2070.514851	0.940888	-0.031743	2.711271
148.322010	2081.542819	0.945893	-0.031827	2.717286
148.861696	2092.541284	0.950898	-0.031931	2.723289
149.221906	2103.573336	0.955902	-0.032002	2.729267
149.826247	2114.581994	0.960907	-0.032118	2.735260
150.124543	2125.634325	0.965912	-0.032176	2.741211
150.392396	2136.656665	0.970917	-0.032229	2.747129
150.816847	2147.657603	0.975921	-0.032312	2.753049
151.336052	2158.642505	0.980926	-0.032412	2.758963
151.802956	2169.683331	0.985931	-0.032502	2.764885
152.429487	2180.700932	0.990936	-0.032623	2.770808
152.907392	2191.728200	0.995940	-0.032715	2.776699
153.277335	2202.751942	1.000945	-0.032787	2.782559
153.577082	2213.768848	1.005950	-0.032846	2.788390
154.121353	2224.780241	1.010954	-0.032951	2.794246
154.605704	2235.808326	1.015959	-0.033044	2.800089
154.958068	2246.835730	1.020964	-0.033113	2.805898
155.405753	2257.851438	1.025969	-0.033200	2.811704
155.817278	2268.886034	1.030973	-0.033280	2.817502
156.332248	2279.879266	1.035978	-0.033379	2.823283
156.785814	2290.900766	1.040983	-0.033467	2.829057
157.181763	2301.928037	1.045988	-0.033544	2.834812
157.533280	2312.947037	1.050992	-0.033613	2.840545
157.968852	2323.971901	1.055997	-0.033697	2.846282
158.307197	2335.003834	1.061002	-0.033764	2.851996
158.633808	2345.984407	1.066006	-0.033828	2.857670
159.165128	2357.008587	1.071011	-0.033930	2.863388
159.510282	2368.062434	1.076016	-0.033998	2.869080
160.186168	2379.041348	1.081021	-0.034127	2.874773
160.400223	2390.091678	1.086025	-0.034170	2.880420
160.884775	2401.095804	1.091030	-0.034264	2.886074
161.408884	2412.137142	1.096035	-0.034365	2.891742
161.828494	2423.132497	1.101039	-0.034446	2.897360
162.305400	2434.128446	1.106044	-0.034538	2.902975
162.994989	2445.155208	1.111049	-0.034670	2.908628
163.337712	2456.179376	1.116054	-0.034738	2.914215
163.825470	2467.226409	1.121058	-0.034832	2.919825
164.100904	2478.246838	1.126063	-0.034886	2.925379
164.739382	2489.234388	1.131068	-0.035009	2.930960
165.088169	2500.283407	1.136073	-0.035077	2.936518
165.446420	2511.282390	1.141077	-0.035147	2.942041
165.894223	2522.287872	1.146082	-0.035234	2.947571
166.432842	2533.316651	1.151087	-0.035337	2.953115
166.887936	2544.342782	1.156091	-0.035426	2.958635
167.265127	2555.361051	1.161096	-0.035499	2.964129
167.776865	2566.370300	1.166101	-0.035598	2.969629
168.043340	2577.423148	1.171106	-0.035650	2.975103
168.345238	2588.424844	1.176110	-0.035710	2.980547
168.967282	2599.395129	1.181115	-0.035829	2.986013
169.407041	2610.458381	1.186120	-0.035915	2.991487
169.988075	2621.448026	1.191125	-0.036026	2.996936
170.249325	2632.489687	1.196129	-0.036078	3.002354
170.701352	2643.525130	1.201134	-0.036166	3.007787
171.073416	2654.518125	1.206139	-0.036238	3.013177
171.468144	2665.524428	1.211143	-0.036315	3.018568
171.812990	2676.565141	1.216148	-0.036382	3.023958
172.213004	2687.585486	1.221153	-0.036460	3.029336
172.535621	2698.607506	1.226158	-0.036523	3.034695
173.028248	2709.619376	1.231162	-0.036619	3.040064
173.472482	2720.630563	1.236167	-0.036705	3.045415
173.854620	2731.662521	1.241172	-0.036779	3.050759
174.130527	2742.659037	1.246177	-0.036834	3.056060
174.529673	2753.667067	1.251181	-0.036911	3.061376
174.934433	2764.695621	1.256186	-0.036990	3.066693
175.361402	2775.728631	1.261191	-0.037073	3.072005
175.795615	2786.729089	1.266195	-0.037157	3.077294
176.288693	2797.744014	1.271200	-0.037252	3.082589
176.565948	2808.793496	1.276205	-0.037307	3.087861
176.920387	2819.794389	1.281210	-0.037376	3.093112
177.149522	2830.823586	1.286214	-0.037422	3.098349
177.882456	2841.785288	1.291219	-0.037562	3.103616
178.407294	2852.855683	1.296224	-0.037663	3.108896
178.600939	2863.868050	1.301228	-0.037702	3.114094
179.030925	2874.880107	1.306233	-0.037786	3.119315
179.312884	2885.920562	1.311238	-0.037841	3.124521
179.693533	2896.918634	1.316243	-0.037916	3.129712
180.135469	2907.937478	1.321247	-0.038001	3.134912
180.469393	2918.951070	1.326252	-0.038067	3.140086
181.071491	2929.945617	1.331257	-0.038182	3.145279
181.217490	2941.021104	1.336262	-0.038213	3.150439
181.539759	2951.991885	1.341266	-0.038276	3.155566
181.972269	2963.032400	1.346271	-0.038360	3.160731
182.491794	2974.011240	1.351276	-0.038460	3.165872
182.941534	2985.066088	1.356280	-0.038547	3.171029
183.327050	2996.049510	1.361285	-0.038622	3.176137
183.721997	3007.087706	1.366290	-0.038699	3.181263
184.140249	3018.106700	1.371295	-0.038780	3.186374
184.610976	3029.146322	1.376299	-0.038871	3.191494
185.042285	3040.120638	1.381304	-0.038955	3.196570
185.498537	3051.156254	1.386309	-0.039043	3.201670
185.730221	3062.193407	1.391314	-0.039089	3.206732
186.065304	3073.186070	1.396318	-0.039155	3.211780
186.357146	3084.213682	1.401323	-0.039212	3.216830
186.630096	3095.235458	1.406328	-0.039266	3.221866
187.345406	3106.215456	1.411332	-0.039403	3.226934
187.393816	3117.287487	1.416337	-0.039415	3.231948
187.722237	3128.284401	1.421342	-0.039479	3.236957
188.086631	3139.297349	1.426347	-0.039551	3.241970
188.870990	3150.286878	1.431351	-0.039700	3.247019
189.367731	3161.313608	1.436356	-0.039796	3.252040
189.926565	3172.331729	1.441361	-0.039904	3.257056
189.989651	3183.392962	1.446366	-0.039919	3.262021
190.158672	3194.408678	1.451370	-0.039953	3.266971
190.324877	3205.381234	1.456375	-0.039987	3.271894
190.819707	3216.417423	1.461380	-0.040082	3.276880
191.047484	3227.431363	1.466384	-0.040128	3.281815
191.603189	3238.446630	1.471389	-0.040235	3.286784
191.730957	3249.477838	1.476394	-0.040262	3.291698
192.211881	3260.453393	1.481399	-0.040355	3.296625
192.634005	3271.503493	1.486403	-0.040437	3.301570
193.226407	3282.497507	1.491408	-0.040550	3.306504
193.720112	3293.539358	1.496413	-0.040646	3.311439
193.979251	3304.546236	1.501417	-0.040697	3.316322
194.126589	3315.562900	1.506422	-0.040727	3.321188
194.573157	3326.588056	1.511427	-0.040814	3.326088
194.884802	3337.601089	1.516432	-0.040875	3.330959
195.395132	3348.604438	1.521436	-0.040974	3.335843
195.613050	3359.651853	1.526441	-0.041017	3.340702
195.800922	3370.655372	1.531446	-0.041055	3.345532
196.097391	3381.663766	1.536451	-0.041114	3.350370
196.675570	3392.669445	1.541455	-0.041225	3.355235
196.879554	3403.716987	1.546460	-0.041266	3.360064
197.275465	3414.693703	1.551465	-0.041343	3.364880
197.791062	3425.743770	1.556469	-0.041442	3.369735
198.122344	3436.740662	1.561474	-0.041507	3.374537
198.354326	3447.779141	1.566479	-0.041554	3.379338
198.736137	3458.772882	1.571484	-0.041628	3.384131
199.139949	3469.801076	1.576488	-0.041706	3.388935
199.508992	3480.807841	1.581493	-0.041778	3.393719
199.770138	3491.840196	1.586498	-0.041830	3.398493
199.919646	3502.856801	1.591503	-0.041861	3.403241
200.328229	3513.865027	1.596507	-0.041940	3.408010
200.914983	3524.843976	1.601512	-0.042053	3.412780
201.548212	3535.888807	1.606517	-0.042175	3.417578
202.016622	3546.890792	1.611521	-0.042265	3.422330
202.346250	3557.938873	1.616526	-0.042330	3.427079
202.637911	3568.936780	1.621531	-0.042387	3.431796
202.956603	3579.958060	1.626536	-0.042450	3.436519
203.491153	3590.977927	1.631540	-0.042553	3.441261
203.940509	3601.998671	1.636545	-0.042640	3.445986
204.305425	3612.999929	1.641550	-0.042711	3.450686
204.418957	3624.033225	1.646555	-0.042735	3.455365
205.027330	3635.001096	1.651559	-0.042852	3.460067
205.391159	3646.058260	1.656564	-0.042923	3.464771
205.635293	3657.078302	1.661569	-0.042972	3.469440
205.962736	3668.107685	1.666573	-0.043036	3.474116
206.320536	3679.103014	1.671578	-0.043106	3.478774
206.613892	3690.136251	1.676583	-0.043163	3.483435
206.986014	3701.133942	1.681588	-0.043236	3.488084
207.249349	3712.142720	1.686592	-0.043288	3.492718
207.578423	3723.157427	1.691597	-0.043352	3.497357
208.081549	3734.192108	1.696602	-0.043450	3.502017
208.459344	3745.205551	1.701606	-0.043523	3.506648
208.861663	3756.192702	1.706611	-0.043601	3.511264
209.125681	3767.254778	1.711616	-0.043654	3.515890
209.712274	3778.238198	1.716621	-0.043767	3.520514
210.143786	3789.265783	1.721625	-0.043850	3.525132
210.419854	3800.298951	1.726630	-0.043905	3.529728
210.907494	3811.287315	1.731635	-0.043999	3.534324
211.370992	3822.308305	1.736640	-0.044089	3.538925
211.649478	3833.340907	1.741644	-0.044144	3.543504
212.053543	3844.364074	1.746649	-0.044222	3.548086
212.288628	3855.346280	1.751654	-0.044269	3.552628
212.572625	3866.398841	1.756658	-0.044325	3.557197
212.975505	3877.374531	1.761663	-0.044403	3.561743
213.156708	3888.427893	1.766668	-0.044440	3.566290
213.604224	3899.404305	1.771673	-0.044527	3.570828
213.972667	3910.432320	1.776677	-0.044599	3.575374
214.435358	3921.434189	1.781682	-0.044688	3.579913
214.813105	3932.483870	1.786687	-0.044762	3.584456
215.129019	3943.483042	1.791692	-0.044824	3.588967
215.490601	3954.508762	1.796696	-0.044894	3.593487
215.783713	3965.529986	1.801701	-0.044952	3.597992
216.112060	3976.543589	1.806706	-0.045016	3.602493
216.486737	3987.555868	1.811710	-0.045089	3.606992
216.640570	3998.565917	1.816715	-0.045121	3.611461
217.010370	4009.589721	1.821720	-0.045193	3.615953
217.235736	4020.607738	1.826725	-0.045238	3.620421
217.487625	4031.602313	1.831729	-0.045288	3.624877
217.640386	4042.636845	1.836734	-0.045320	3.629334
218.066192	4053.615324	1.841739	-0.045402	3.633791
218.447432	4064.677790	1.846744	-0.045476	3.638272
218.830770	4075.686670	1.851748	-0.045551	3.642726
218.973723	4086.725812	1.856753	-0.045581	3.647161
219.301358	4097.708102	1.861758	-0.045645	3.651587
219.615083	4108.790567	1.866762	-0.045707	3.656047
220.073246	4119.756557	1.871767	-0.045795	3.660469
220.412715	4130.813574	1.876772	-0.045862	3.664910
220.899556	4141.777442	1.881777	-0.045956	3.669324
221.187343	4152.854143	1.886781	-0.046012	3.673757
221.406483	4163.862473	1.891786	-0.046056	3.678150
221.594903	4174.883506	1.896791	-0.046094	3.682539
222.192987	4185.867104	1.901795	-0.046209	3.686951
222.476578	4196.891762	1.906800	-0.046265	3.691341
222.736391	4207.909887	1.911805	-0.046317	3.695721
223.010513	4218.920180	1.916810	-0.046371	3.700094
223.400335	4229.940669	1.921814	-0.046447	3.704478
223.606398	4240.969017	1.926819	-0.046488	3.708840
223.995049	4251.971207	1.931824	-0.046564	3.713206
224.307000	4262.998568	1.936829	-0.046625	3.717569
224.704829	4274.000251	1.941833	-0.046702	3.721925
225.067786	4285.028157	1.946838	-0.046773	3.726283
225.554674	4295.995840	1.951843	-0.046867	3.730624
225.881946	4307.075360	1.956847	-0.046932	3.734988
226.362763	4318.053428	1.961852	-0.047024	3.739323
226.534860	4329.091925	1.966857	-0.047059	3.743645
