Wed Nov 23 19:44:20 2022

Number of Points = 2200
Depth (nm)	Load (µN)	Time (s)	Depth (V)	Load (V)
-7.182037	-0.625358	0.000000	0.045653	0.920887
0.000000	5.382681	0.005005	0.044304	0.934706
3.728524	15.180797	0.010009	0.043601	0.952218
5.989778	26.285967	0.015014	0.043174	0.970571
8.051007	37.511674	0.020019	0.042785	0.988651
10.005613	48.684107	0.025024	0.042415	1.006269
12.388071	59.845222	0.030028	0.041966	1.023794
14.435289	71.029819	0.035033	0.041579	1.040879
16.741931	82.197445	0.040038	0.041143	1.057796
18.454968	93.469944	0.045043	0.040819	1.074288
20.133762	104.667423	0.050047	0.040501	1.090411
21.456149	115.892481	0.055052	0.040250	1.106159
23.011669	127.006606	0.060057	0.039955	1.121652
24.443599	138.160498	0.065061	0.039684	1.136925
25.811977	149.305003	0.070066	0.039425	1.151952
27.057749	160.451416	0.075071	0.039188	1.166731
28.637377	171.510165	0.080076	0.038889	1.181367
29.726847	182.711683	0.085080	0.038682	1.195777
31.066399	193.802926	0.090085	0.038428	1.209992
32.156611	204.963802	0.095090	0.038220	1.224015
33.283173	216.030947	0.100094	0.038006	1.237783
34.575515	227.122349	0.105099	0.037761	1.251498
35.801125	238.220096	0.110104	0.037528	1.265043
36.717188	249.385750	0.115109	0.037353	1.278391
37.831590	260.438658	0.120113	0.037142	1.291554
38.952545	271.578807	0.125118	0.036929	1.304686
40.232331	282.600018	0.130123	0.036686	1.317617
41.232868	293.708896	0.135128	0.036495	1.330406
42.349720	304.786826	0.140132	0.036283	1.343086
43.188227	315.907542	0.145137	0.036123	1.355582
44.379786	326.923079	0.150142	0.035896	1.367989
45.865495	337.944973	0.155146	0.035615	1.380404
46.869352	349.109646	0.160151	0.035424	1.392674
47.778813	360.185231	0.165156	0.035250	1.404707
49.244231	371.188305	0.170161	0.034973	1.416771
50.008728	382.345498	0.175165	0.034827	1.428630
51.295391	393.356501	0.180170	0.034582	1.440434
52.447489	404.428758	0.185175	0.034363	1.452154
53.405055	415.545695	0.190180	0.034181	1.463754
54.023558	426.658684	0.195184	0.034062	1.475136
55.131560	437.635315	0.200189	0.033852	1.486470
56.319012	448.689944	0.205194	0.033626	1.497822
57.196549	459.784840	0.210198	0.033459	1.509020
58.208558	470.849377	0.215203	0.033266	1.520151
59.134923	481.910961	0.220208	0.033089	1.531169
60.060361	492.975582	0.225213	0.032913	1.542110
61.103658	504.020170	0.230217	0.032715	1.552994
61.813515	515.093289	0.235222	0.032579	1.563716
63.078275	526.075246	0.240227	0.032339	1.574466
64.082271	537.173629	0.245232	0.032147	1.585163
64.926442	548.247507	0.250236	0.031986	1.595713
65.810550	559.307780	0.255241	0.031818	1.606194
66.948780	570.320093	0.260246	0.031601	1.616645
67.674826	581.419154	0.265250	0.031462	1.626974
68.424531	592.476677	0.270255	0.031319	1.637208
69.390357	603.490932	0.275260	0.031135	1.647407
70.250721	614.558336	0.280265	0.030971	1.657558
70.998402	625.613092	0.285269	0.030828	1.667600
71.598063	636.701464	0.290274	0.030713	1.677564
72.421068	647.679905	0.295279	0.030555	1.687442
73.303776	658.747506	0.300283	0.030387	1.697359
74.199636	669.787293	0.305288	0.030216	1.707197
75.103365	680.813393	0.310293	0.030044	1.716969
75.937768	691.872071	0.315298	0.029885	1.726693
76.773811	702.938892	0.320302	0.029725	1.736369
77.651863	713.938980	0.325307	0.029558	1.745947
78.491940	725.012769	0.330312	0.029397	1.755523
79.064062	736.087041	0.335317	0.029287	1.764968
79.949684	747.093773	0.340321	0.029118	1.774398
80.382748	758.176780	0.345326	0.029034	1.783709
81.333098	769.167633	0.350331	0.028853	1.793046
82.061179	780.221211	0.355335	0.028714	1.802321
82.849105	791.275744	0.360340	0.028563	1.811566
83.435790	802.327007	0.365345	0.028450	1.820704
84.160675	813.329693	0.370350	0.028312	1.829796
84.844695	824.390520	0.375354	0.028181	1.838878
85.761917	835.405994	0.380359	0.028006	1.847944
86.350516	846.484429	0.385364	0.027892	1.856924
87.253551	857.484822	0.390369	0.027720	1.865886
87.818988	868.552763	0.395373	0.027611	1.874764
88.470661	879.578434	0.400378	0.027486	1.883592
89.032582	890.630886	0.405383	0.027378	1.892374
89.995300	901.616456	0.410387	0.027195	1.901171
90.796266	912.658947	0.415392	0.027042	1.909929
91.564247	923.716831	0.420397	0.026895	1.918649
92.116167	934.763970	0.425402	0.026789	1.927263
93.000292	945.781213	0.430406	0.026620	1.935904
93.397616	956.849866	0.435411	0.026543	1.944417
94.116757	967.832710	0.440416	0.026405	1.952912
94.927361	978.900189	0.445421	0.026250	1.961458
95.622172	989.919175	0.450425	0.026117	1.969900
96.230432	1000.962755	0.455430	0.026000	1.978302
96.778921	1012.018609	0.460435	0.025895	1.986661
97.322552	1023.042522	0.465439	0.025790	1.994961
98.254311	1034.045336	0.470444	0.025612	2.003308
99.040738	1045.082938	0.475449	0.025462	2.011610
99.799510	1056.135555	0.480454	0.025317	2.019881
100.259581	1067.182155	0.485458	0.025228	2.028039
101.103574	1078.164785	0.490463	0.025067	2.036214
101.626219	1089.242654	0.495468	0.024966	2.044344
102.288576	1100.269089	0.500472	0.024839	2.052440
102.953128	1111.276988	0.505477	0.024712	2.060490
103.770929	1122.307929	0.510482	0.024555	2.068563
104.069374	1133.394863	0.515487	0.024497	2.076518
104.723163	1144.393348	0.520491	0.024371	2.084466
105.364192	1155.417494	0.525496	0.024248	2.092398
106.013667	1166.444230	0.530501	0.024124	2.100304
106.471351	1177.487782	0.535506	0.024035	2.108146
107.189087	1188.490387	0.540510	0.023898	2.115992
107.902277	1199.520311	0.545515	0.023761	2.123826
108.653525	1210.561984	0.550520	0.023617	2.131649
109.097533	1221.606505	0.555524	0.023531	2.139372
109.832503	1232.581650	0.560529	0.023391	2.147088
110.644550	1243.649125	0.565534	0.023236	2.154857
111.213980	1254.674577	0.570539	0.023126	2.162513
111.644151	1265.733946	0.575543	0.023043	2.170133
112.278760	1276.757137	0.580548	0.022921	2.177749
112.837630	1287.747709	0.585553	0.022813	2.185298
113.509453	1298.781908	0.590558	0.022684	2.192876
114.082476	1309.833788	0.595562	0.022574	2.200417
114.642681	1320.836511	0.600567	0.022466	2.207897
115.257427	1331.880532	0.605572	0.022348	2.215390
115.811808	1342.903966	0.610576	0.022241	2.222831
116.242726	1353.939233	0.615581	0.022158	2.230228
117.192106	1364.896275	0.620586	0.021977	2.237663
117.772948	1376.002028	0.625591	0.021865	2.245089
118.648436	1386.994700	0.630595	0.021698	2.252482
118.756899	1398.106714	0.635600	0.021675	2.259760
119.393706	1409.030039	0.640605	0.021553	2.267007
119.980653	1420.089955	0.645610	0.021440	2.274309
120.522671	1431.114374	0.650614	0.021336	2.281554
120.980052	1442.151105	0.655619	0.021247	2.288766
121.434732	1453.175407	0.660624	0.021159	2.295946
121.885240	1464.200002	0.665628	0.021072	2.303103
122.805998	1475.175959	0.670633	0.020896	2.310307
123.397374	1486.238367	0.675638	0.020783	2.317473
123.886114	1497.280436	0.680643	0.020688	2.324583
124.293083	1508.299015	0.685647	0.020609	2.331638
124.938430	1519.321581	0.690652	0.020485	2.338725
125.491575	1530.336352	0.695657	0.020379	2.345766
126.250052	1541.336510	0.700661	0.020234	2.352818
126.856177	1552.372558	0.705666	0.020117	2.359841
127.608046	1563.406524	0.710671	0.019973	2.366871
127.832500	1574.495584	0.715676	0.019929	2.373806
128.426664	1585.435266	0.720680	0.019814	2.380704
128.854483	1596.503249	0.725685	0.019731	2.387627
129.514555	1607.498010	0.730690	0.019605	2.394532
130.073869	1618.536325	0.735695	0.019497	2.401423
130.689403	1629.554501	0.740699	0.019379	2.408293
131.130902	1640.604202	0.745704	0.019293	2.415128
131.619666	1651.602573	0.750709	0.019199	2.421922
132.053430	1662.642649	0.755713	0.019115	2.428711
132.575553	1673.667740	0.760718	0.019014	2.435489
133.081723	1684.661211	0.765723	0.018916	2.442226
133.782822	1695.702727	0.770728	0.018782	2.449011
134.013718	1706.746453	0.775732	0.018736	2.455687
134.645426	1717.722207	0.780737	0.018615	2.462382
135.620420	1728.733947	0.785742	0.018429	2.469147
136.294961	1739.776409	0.790747	0.018300	2.475853
136.728617	1750.829634	0.795751	0.018216	2.482501
137.153270	1761.849289	0.800756	0.018133	2.489109
137.622649	1772.870803	0.805761	0.018042	2.495710
138.359656	1783.873370	0.810765	0.017901	2.502332
138.805912	1794.918676	0.815770	0.017815	2.508907
139.379323	1805.907521	0.820775	0.017705	2.515455
139.813831	1816.970610	0.825780	0.017620	2.522004
140.336582	1827.977110	0.830784	0.017520	2.528518
141.051605	1838.962599	0.835789	0.017383	2.535040
141.768064	1850.002271	0.840794	0.017246	2.541577
142.406773	1861.036255	0.845799	0.017123	2.548078
142.907614	1872.078826	0.850803	0.017026	2.554543
143.181323	1883.106293	0.855808	0.016972	2.560940
143.693598	1894.093272	0.860813	0.016873	2.567342
144.279273	1905.176196	0.865817	0.016761	2.573796
144.839199	1916.164426	0.870822	0.016653	2.580175
145.374742	1927.174751	0.875827	0.016550	2.586546
145.942706	1938.179730	0.880832	0.016440	2.592904
146.460425	1949.217052	0.885836	0.016340	2.599256
146.997679	1960.226911	0.890841	0.016237	2.605580
147.491229	1971.268006	0.895846	0.016142	2.611898
148.082714	1982.272682	0.900850	0.016028	2.618198
148.428533	1993.299713	0.905855	0.015960	2.624452
149.032034	2004.315283	0.910860	0.015844	2.630729
149.441017	2015.349586	0.915865	0.015765	2.636968
150.094538	2026.369040	0.920869	0.015639	2.643227
150.528146	2037.384388	0.925874	0.015555	2.649429
151.153570	2048.384509	0.930879	0.015435	2.655643
151.567323	2059.404572	0.935884	0.015355	2.661815
152.083389	2070.434106	0.940888	0.015255	2.667997
152.335052	2081.452438	0.945893	0.015205	2.674111
152.938889	2092.468775	0.950898	0.015089	2.680272
153.443022	2103.479019	0.955902	0.014992	2.686397
153.911855	2114.520521	0.960907	0.014901	2.692520
154.169260	2125.536139	0.965912	0.014850	2.698578
154.766821	2136.530739	0.970917	0.014735	2.704669
155.339315	2147.569747	0.975921	0.014625	2.710767
155.683777	2158.596197	0.980926	0.014558	2.716804
156.220736	2169.603123	0.985931	0.014454	2.722851
156.821345	2180.612846	0.990936	0.014339	2.728896
157.296261	2191.654227	0.995940	0.014247	2.734923
157.821979	2202.654009	1.000945	0.014146	2.740923
158.435535	2213.693528	1.005950	0.014028	2.746946
158.820665	2224.714076	1.010954	0.013953	2.752907
159.215037	2235.743811	1.015959	0.013876	2.758862
159.657038	2246.733091	1.020964	0.013791	2.764790
160.147544	2257.781311	1.025969	0.013696	2.770745
160.537467	2268.804054	1.030973	0.013620	2.776656
161.014761	2279.806953	1.035978	0.013528	2.782559
161.670616	2290.805899	1.040983	0.013402	2.788476
162.173903	2301.841019	1.045988	0.013305	2.794375
162.716688	2312.861039	1.050992	0.013200	2.800260
163.211508	2323.894831	1.055997	0.013105	2.806131
163.617062	2334.927589	1.061002	0.013026	2.811975
163.906044	2345.936297	1.066006	0.012969	2.817776
164.301048	2356.939932	1.071011	0.012892	2.823579
164.746731	2367.980997	1.076016	0.012806	2.829397
165.182195	2378.988933	1.081021	0.012721	2.835185
165.743331	2389.986421	1.086025	0.012613	2.840975
166.306352	2401.013092	1.091030	0.012505	2.846769
166.680148	2412.052357	1.096035	0.012432	2.852527
167.102374	2423.064248	1.101039	0.012350	2.858267
167.675982	2434.066690	1.106044	0.012240	2.864015
168.138009	2445.098893	1.111049	0.012150	2.869748
168.471341	2456.142676	1.116054	0.012085	2.875456
169.035500	2467.129865	1.121058	0.011976	2.881159
169.406760	2478.165067	1.126063	0.011904	2.886846
169.901146	2489.193270	1.131068	0.011808	2.892537
170.246014	2500.202897	1.136073	0.011741	2.898183
170.791668	2511.190758	1.141077	0.011636	2.903839
171.200254	2522.245732	1.146082	0.011556	2.909497
171.701569	2533.238657	1.151087	0.011460	2.915126
172.026379	2544.288132	1.156091	0.011396	2.920746
172.536145	2555.279826	1.161096	0.011298	2.926354
173.253374	2566.297766	1.166101	0.011160	2.931996
173.502079	2577.331492	1.171106	0.011111	2.937563
173.968218	2588.350239	1.176110	0.011021	2.943146
174.197363	2599.381780	1.181115	0.010975	2.948688
174.538932	2610.383877	1.186120	0.010908	2.954222
174.874800	2621.421924	1.191125	0.010842	2.959762
175.354054	2632.412376	1.196129	0.010750	2.965291
176.025580	2643.429958	1.201134	0.010621	2.970851
176.440693	2654.468220	1.206139	0.010540	2.976372
177.007047	2665.456394	1.211143	0.010431	2.981881
177.413020	2676.486721	1.216148	0.010352	2.987376
178.090787	2687.488817	1.221153	0.010223	2.992888
178.473916	2698.537801	1.226158	0.010148	2.998368
179.035289	2709.532687	1.231162	0.010040	3.003839
179.365417	2720.596136	1.236167	0.009975	3.009298
180.023353	2731.544986	1.241172	0.009849	3.014740
180.437094	2742.613374	1.246177	0.009769	3.020195
180.830419	2753.629352	1.251181	0.009692	3.025611
181.305867	2764.656971	1.256186	0.009600	3.031035
181.517243	2775.648602	1.261191	0.009558	3.036393
182.024699	2786.672017	1.266195	0.009460	3.041800
182.437074	2797.697459	1.271200	0.009380	3.047184
182.845905	2808.709568	1.276205	0.009300	3.052552
183.384013	2819.712020	1.281210	0.009197	3.057925
183.901076	2830.739389	1.286214	0.009097	3.063297
184.409736	2841.757261	1.291219	0.008999	3.068653
185.018021	2852.774434	1.296224	0.008882	3.074014
185.678008	2863.781750	1.301228	0.008755	3.079368
186.156100	2874.822364	1.306233	0.008663	3.084702
186.436757	2885.847371	1.311238	0.008607	3.089992
186.661278	2896.866155	1.316243	0.008563	3.095262
187.180817	2907.863989	1.321247	0.008462	3.100555
187.855404	2918.852446	1.326252	0.008333	3.105855
188.431084	2929.887663	1.331257	0.008222	3.111155
188.846943	2940.939884	1.336262	0.008142	3.116431
189.244215	2951.947161	1.341266	0.008064	3.121674
189.640978	2962.962897	1.346271	0.007987	3.126913
190.162617	2973.968076	1.351276	0.007887	3.132154
190.652433	2984.989619	1.356280	0.007792	3.137391
191.403379	2995.986054	1.361285	0.007648	3.142642
191.892853	3007.033000	1.366290	0.007554	3.147873
192.278774	3018.032788	1.371295	0.007479	3.153058
192.480040	3029.111244	1.376299	0.007438	3.158246
193.117698	3040.044760	1.381304	0.007316	3.163418
193.568172	3051.114176	1.386309	0.007228	3.168618
193.763612	3062.115674	1.391314	0.007189	3.173744
194.193403	3073.130218	1.396318	0.007106	3.178900
194.564270	3084.130911	1.401323	0.007033	3.184032
195.127885	3095.193160	1.406328	0.006925	3.189211
195.458730	3106.182970	1.411332	0.006860	3.194316
195.925707	3117.202770	1.416337	0.006770	3.199445
196.297446	3128.220081	1.421342	0.006697	3.204552
196.684656	3139.261772	1.426347	0.006622	3.209664
197.040505	3150.229503	1.431351	0.006552	3.214730
197.561744	3161.296258	1.436356	0.006452	3.219855
197.998037	3172.272188	1.441361	0.006367	3.224919
198.571502	3183.306439	1.446366	0.006257	3.230019
198.901728	3194.307339	1.451370	0.006192	3.235064
199.208858	3205.346181	1.456375	0.006132	3.240116
199.640996	3216.343097	1.461380	0.006048	3.245156
200.304628	3227.370986	1.466384	0.005921	3.250233
200.696297	3238.371252	1.471389	0.005845	3.255254
201.245261	3249.409495	1.476394	0.005739	3.260305
201.467011	3260.434499	1.481399	0.005694	3.265300
202.025249	3271.436374	1.486403	0.005587	3.270320
202.187129	3282.472572	1.491408	0.005554	3.275296
202.738658	3293.468540	1.496413	0.005448	3.280297
203.243945	3304.483205	1.501417	0.005350	3.285292
203.828799	3315.510591	1.506422	0.005238	3.290296
204.043959	3326.545350	1.511427	0.005195	3.295248
204.364146	3337.552258	1.516432	0.005132	3.300194
204.811317	3348.556683	1.521436	0.005045	3.305147
205.301750	3359.583335	1.526441	0.004950	3.310108
205.578241	3370.601207	1.531446	0.004896	3.315030
205.960698	3381.625390	1.536451	0.004821	3.319961
206.128140	3392.627742	1.541455	0.004787	3.324849
206.568173	3403.673189	1.546460	0.004702	3.329782
206.735290	3414.636308	1.551465	0.004668	3.334637
207.233618	3425.674440	1.556469	0.004571	3.339559
207.597893	3436.706120	1.561474	0.004500	3.344455
207.976254	3447.721173	1.566479	0.004427	3.349338
208.514354	3458.688384	1.571484	0.004323	3.354212
209.046709	3469.768624	1.576488	0.004220	3.359128
209.436976	3480.761939	1.581493	0.004144	3.363981
209.776867	3491.794981	1.586498	0.004078	3.368839
209.992797	3502.785907	1.591503	0.004035	3.373655
210.458621	3513.829600	1.596507	0.003945	3.378518
210.898328	3524.789144	1.601512	0.003859	3.383335
211.412646	3535.860473	1.606517	0.003760	3.388201
211.787150	3546.833763	1.611521	0.003687	3.393002
212.139804	3557.894767	1.616526	0.003618	3.397831
212.621572	3568.875792	1.621531	0.003525	3.402634
213.206530	3579.918603	1.626536	0.003413	3.407469
213.553761	3590.900323	1.631540	0.003345	3.412242
213.937205	3601.966825	1.636545	0.003270	3.417049
214.303922	3612.952858	1.641550	0.003198	3.421813
214.629993	3623.980407	1.646555	0.003135	3.426583
214.967075	3634.987767	1.651559	0.003069	3.431339
215.489221	3646.014924	1.656564	0.002968	3.436119
215.872579	3657.008617	1.661569	0.002893	3.440861
216.331657	3668.051819	1.666573	0.002804	3.445627
216.589389	3679.063728	1.671578	0.002753	3.450349
216.959917	3690.080393	1.676583	0.002681	3.455080
217.265225	3701.088583	1.681588	0.002621	3.459793
217.500240	3712.138802	1.686592	0.002574	3.464509
217.897780	3723.099854	1.691597	0.002497	3.469200
218.253684	3734.153273	1.696602	0.002427	3.473918
218.731060	3745.163563	1.701606	0.002335	3.478626
219.076549	3756.175061	1.706611	0.002267	3.483313
219.241099	3767.202377	1.711616	0.002234	3.487979
219.524420	3778.203190	1.716621	0.002178	3.492642
219.939899	3789.193231	1.721625	0.002097	3.497308
220.269755	3800.251509	1.726630	0.002033	3.501988
220.670792	3811.246579	1.731635	0.001955	3.506642
221.074325	3822.261924	1.736640	0.001876	3.511299
221.326443	3833.302125	1.741644	0.001826	3.515943
221.558974	3844.308611	1.746649	0.001780	3.520565
221.855554	3855.309371	1.751654	0.001721	3.525185
222.379700	3866.347832	1.756658	0.001620	3.529841
222.565542	3877.352627	1.761663	0.001583	3.534438
222.945419	3888.369750	1.766668	0.001509	3.539056
223.260304	3899.365727	1.771673	0.001447	3.543652
223.851834	3910.409325	1.776677	0.001333	3.548292
223.958890	3921.413003	1.781682	0.001310	3.552856
224.389317	3932.416270	1.786687	0.001227	3.557450
224.644220	3943.441338	1.791692	0.001176	3.562027
225.143382	3954.458269	1.796696	0.001080	3.566622
225.438070	3965.456805	1.801701	0.001022	3.571181
225.814084	3976.497221	1.806706	0.000949	3.575760
226.173423	3987.508662	1.811710	0.000879	3.580319
226.520397	3998.537784	1.816715	0.000811	3.584878
226.826027	4009.519086	1.821720	0.000751	3.589408
227.070074	4020.585260	1.826725	0.000702	3.593959
227.290279	4031.572611	1.831729	0.000658	3.598470
227.797959	4042.596003	1.836734	0.000560	3.603022
228.108131	4053.605180	1.841739	0.000499	3.607540
228.483096	4064.618088	1.846744	0.000426	3.612061
228.850907	4075.627049	1.851748	0.000354	3.616573
229.094140	4086.652421	1.856753	0.000306	3.621074
229.403285	4097.711223	1.861758	0.000245	3.625589
229.697072	4108.712535	1.866762	0.000187	3.630074
230.000999	4119.748211	1.871767	0.000128	3.634568
230.382121	4130.761912	1.876772	0.000053	3.639056
230.584827	4141.780960	1.881777	0.000013	3.643521
230.790248	4152.817645	1.886781	-0.000029	3.647989
230.946108	4163.818224	1.891786	-0.000061	3.652431
231.442132	4174.802533	1.896791	-0.000156	3.656897
231.773589	4185.823808	1.901795	-0.000221	3.661355
232.131337	4196.881514	1.906800	-0.000291	3.665824
232.196878	4207.868283	1.911805	-0.000306	3.670229
232.599412	4218.899397	1.916810	-0.000385	3.674682
232.873890	4229.878480	1.921814	-0.000439	3.679096
233.402958	4240.932756	1.926819	-0.000541	3.683560
233.525490	4251.955148	1.931824	-0.000566	3.687964
233.926259	4262.939308	1.936829	-0.000644	3.692376
234.093679	4273.964080	1.941833	-0.000679	3.696775
234.560602	4284.953148	1.946838	-0.000769	3.701186
234.731096	4296.011679	1.951843	-0.000804	3.705588
235.017651	4307.014659	1.956847	-0.000860	3.709974
235.170739	4318.032434	1.961852	-0.000892	3.714348
235.547661	4329.025773	1.966857	-0.000965	3.718730
235.661780	4340.072071	1.971862	-0.000989	3.723100
236.149061	4351.076780	1.976866	-0.001083	3.727487
236.282007	4362.097705	1.981871	-0.001111	3.731839
236.610121	4373.096255	1.986876	-0.001175	3.736197
236.738655	4384.118906	1.991881	-0.001202	3.740539
237.014565	4395.153094	1.996885	-0.001257	3.744896
237.370316	4406.132762	2.001890	-0.001326	3.749234
