Wed Nov 23 18:47:16 2022

Number of Points = 2200
Depth (nm)	Load (µN)	Time (s)	Depth (V)	Load (V)
-16.523673	-1.920629	0.000000	0.041102	0.933184
0.000000	3.037230	0.005005	0.038001	0.950576
4.710116	14.451102	0.010009	0.037114	0.970800
7.578771	26.108001	0.015014	0.036573	0.989951
10.040419	37.494303	0.020019	0.036108	1.008119
12.687991	48.699391	0.025024	0.035608	1.025801
15.089786	59.952983	0.030028	0.035155	1.043122
17.792395	71.089168	0.035033	0.034645	1.060149
19.798308	82.378742	0.040038	0.034266	1.076762
22.177999	93.499542	0.045043	0.033817	1.093079
23.952187	104.768159	0.050047	0.033481	1.109055
26.108290	115.857728	0.055052	0.033074	1.124751
27.985403	127.046475	0.060057	0.032719	1.140226
29.502756	138.261287	0.065061	0.032431	1.155356
30.712228	149.463207	0.070066	0.032201	1.170131
32.605298	160.449202	0.075071	0.031844	1.184764
34.423066	171.563353	0.080076	0.031500	1.199340
35.974407	182.732450	0.085080	0.031206	1.213689
37.405180	193.875467	0.090085	0.030935	1.227784
39.052815	204.945925	0.095090	0.030623	1.241726
40.489090	216.067141	0.100094	0.030350	1.255482
42.156766	227.148983	0.105099	0.030035	1.269139
43.456751	238.299598	0.110104	0.029788	1.282575
45.147352	249.325706	0.115109	0.029468	1.295892
46.321167	260.568477	0.120113	0.029245	1.309103
47.698812	271.586117	0.125118	0.028984	1.322013
48.953743	282.667419	0.130123	0.028746	1.334819
50.405028	293.702443	0.135128	0.028471	1.347530
51.741455	304.828121	0.140132	0.028217	1.360174
52.913792	315.929835	0.145137	0.027994	1.372611
53.869092	327.060250	0.150142	0.027812	1.384882
55.080325	338.070335	0.155146	0.027582	1.397016
56.172674	349.167934	0.160151	0.027375	1.409091
57.450373	360.224619	0.165156	0.027132	1.421090
58.415444	371.338065	0.170161	0.026948	1.432930
59.505216	382.378687	0.175165	0.026741	1.444644
60.809904	393.412989	0.180170	0.026494	1.456335
62.106327	404.474588	0.185175	0.026248	1.467956
63.252169	415.569538	0.190180	0.026030	1.479465
64.117684	426.682224	0.195184	0.025865	1.490802
65.327455	437.687236	0.200189	0.025635	1.502069
66.505344	448.748394	0.205194	0.025411	1.513295
67.413495	459.851956	0.210198	0.025238	1.524385
68.647474	470.863090	0.215203	0.025004	1.535418
69.705932	481.963296	0.220208	0.024802	1.546396
70.755033	492.993202	0.225213	0.024603	1.557226
71.651582	504.091812	0.230217	0.024432	1.567995
72.573752	515.150769	0.235222	0.024256	1.578661
73.390552	526.182178	0.240227	0.024100	1.589194
74.790183	537.175868	0.245232	0.023835	1.599815
75.608326	548.302348	0.250236	0.023678	1.610296
76.620258	559.366632	0.255241	0.023486	1.620716
77.340556	570.417582	0.260246	0.023348	1.630962
78.324750	581.451180	0.265250	0.023161	1.641213
79.180440	592.474638	0.270255	0.022997	1.651350
80.300529	603.521596	0.275260	0.022784	1.661529
81.269952	614.568326	0.280265	0.022600	1.671598
82.094421	625.659772	0.285269	0.022442	1.681600
82.954273	636.700781	0.290274	0.022278	1.691510
83.705276	647.759879	0.295279	0.022135	1.701344
84.829943	658.727104	0.300283	0.021921	1.711156
85.744604	669.831671	0.305288	0.021746	1.720965
86.440226	680.886156	0.310293	0.021613	1.730609
87.309846	691.923237	0.315298	0.021447	1.740237
88.008407	702.966702	0.320302	0.021313	1.749767
88.880611	714.015141	0.325307	0.021147	1.759299
89.713470	725.032224	0.330312	0.020988	1.768743
90.692042	736.080942	0.335317	0.020802	1.778204
91.569185	747.119427	0.340321	0.020634	1.787577
92.436039	758.154271	0.345326	0.020469	1.796895
93.039921	769.255096	0.350331	0.020353	1.806143
94.081039	780.206953	0.355335	0.020155	1.815347
95.032973	791.268306	0.360340	0.019973	1.824567
95.972813	802.303736	0.365345	0.019794	1.833716
96.896327	813.358317	0.370350	0.019618	1.842830
97.636062	824.431212	0.375354	0.019477	1.851862
98.513367	835.421353	0.380359	0.019309	1.860823
99.435423	846.478079	0.385364	0.019134	1.869805
100.241237	857.500799	0.390369	0.018980	1.878685
101.071713	868.561153	0.395373	0.018821	1.887559
101.838293	879.607445	0.400378	0.018675	1.896363
102.515113	890.636852	0.405383	0.018545	1.905089
103.164089	901.677520	0.410387	0.018420	1.913776
104.264049	912.661342	0.415392	0.018211	1.922500
105.199775	923.721510	0.420397	0.018033	1.931199
105.954219	934.793002	0.425402	0.017889	1.939819
106.673093	945.791169	0.430406	0.017751	1.948336
107.409991	956.851676	0.435411	0.017610	1.956867
108.211511	967.868642	0.440416	0.017457	1.965345
109.038722	978.900700	0.445421	0.017299	1.973804
109.746059	989.942935	0.450425	0.017164	1.982204
110.576332	1000.974432	0.455430	0.017005	1.990591
111.170113	1012.011695	0.460435	0.016891	1.998886
112.227463	1023.015831	0.465439	0.016690	2.007240
112.935812	1034.099794	0.470444	0.016554	2.015530
113.624304	1045.129724	0.475449	0.016422	2.023741
114.373933	1056.136807	0.480454	0.016279	2.031917
115.189857	1067.172188	0.485458	0.016123	2.040097
116.018854	1078.200799	0.490463	0.015965	2.048243
116.921298	1089.235632	0.495468	0.015793	2.056378
117.548463	1100.265239	0.500472	0.015672	2.064410
118.472590	1111.289130	0.505477	0.015496	2.072478
119.255495	1122.335885	0.510482	0.015346	2.080497
120.021804	1133.360903	0.515487	0.015200	2.088465
120.677595	1144.423416	0.520491	0.015074	2.096403
121.338051	1155.417714	0.525496	0.014947	2.104264
122.211599	1166.432444	0.530501	0.014781	2.112160
122.856995	1177.506528	0.535506	0.014657	2.120014
123.276980	1188.546966	0.540510	0.014575	2.127762
124.194849	1199.525896	0.545515	0.014400	2.135556
124.888469	1210.565925	0.550520	0.014268	2.143311
125.631068	1221.601182	0.555524	0.014125	2.151046
126.209076	1232.652696	0.560529	0.014014	2.158726
126.744200	1243.675495	0.565534	0.013911	2.166349
127.512037	1254.685204	0.570539	0.013764	2.173990
128.382537	1265.695243	0.575543	0.013598	2.181627
129.175578	1276.739308	0.580548	0.013447	2.189242
129.820888	1287.784771	0.585553	0.013323	2.196799
130.402120	1298.816652	0.590558	0.013211	2.204306
131.039256	1309.830792	0.595562	0.013089	2.211787
131.530608	1320.892864	0.600567	0.012994	2.219243
132.171949	1331.867902	0.605572	0.012871	2.226649
132.683332	1342.939677	0.610576	0.012772	2.234065
133.150744	1353.964010	0.615581	0.012682	2.241416
133.768072	1364.962647	0.620586	0.012563	2.248759
134.680394	1375.977942	0.625591	0.012389	2.256152
135.173014	1387.048989	0.630595	0.012294	2.263467
135.805441	1398.041238	0.635600	0.012173	2.270736
136.375090	1409.079166	0.640605	0.012063	2.277999
137.073183	1420.083943	0.645610	0.011929	2.285244
137.960702	1431.090543	0.650614	0.011760	2.292508
138.694980	1442.127278	0.655619	0.011620	2.299735
139.549806	1453.159544	0.660624	0.011456	2.306962
140.147989	1464.210346	0.665628	0.011341	2.314123
140.795129	1475.213814	0.670633	0.011217	2.321243
141.531191	1486.233445	0.675638	0.011076	2.328369
142.322275	1497.282905	0.680643	0.010925	2.335504
142.840694	1508.302744	0.685647	0.010825	2.342541
143.295970	1519.353548	0.690652	0.010737	2.349564
143.885678	1530.340102	0.695657	0.010624	2.356553
144.540158	1541.380925	0.700661	0.010498	2.363568
145.019705	1552.415296	0.705666	0.010406	2.370522
145.863114	1563.391915	0.710671	0.010245	2.377494
146.366882	1574.461530	0.715676	0.010147	2.384434
147.039801	1585.468053	0.720680	0.010018	2.391349
147.579604	1596.515701	0.725685	0.009914	2.398243
148.302099	1607.498564	0.730690	0.009776	2.405113
148.950189	1618.559414	0.735695	0.009652	2.411996
149.443506	1629.590742	0.740699	0.009556	2.418811
149.920272	1640.564872	0.745704	0.009464	2.425568
150.618016	1651.626693	0.750709	0.009330	2.432403
151.038619	1662.664706	0.755713	0.009249	2.439150
151.846053	1673.624904	0.760718	0.009095	2.445907
152.433430	1684.703726	0.765723	0.008982	2.452673
153.095778	1695.687430	0.770728	0.008855	2.459379
153.786373	1706.729790	0.775732	0.008722	2.466106
154.459635	1717.734428	0.780737	0.008593	2.472789
155.252176	1728.766223	0.785742	0.008442	2.479493
155.722245	1739.819268	0.790747	0.008351	2.486129
156.179520	1750.849802	0.795751	0.008262	2.492731
156.859339	1761.830456	0.800756	0.008132	2.499329
157.482366	1772.864092	0.805761	0.008012	2.505930
158.147640	1783.903876	0.810765	0.007885	2.512525
158.646984	1794.905475	0.815770	0.007788	2.519048
159.248485	1805.943706	0.820775	0.007673	2.525596
159.763458	1816.976813	0.825780	0.007574	2.532106
160.138898	1827.996853	0.830784	0.007500	2.538567
160.767085	1838.993006	0.835789	0.007380	2.545044
161.236357	1850.043908	0.840794	0.007289	2.551506
161.899492	1861.047642	0.845799	0.007162	2.557961
162.644055	1872.037520	0.850803	0.007019	2.564406
163.084389	1883.107656	0.855808	0.006934	2.570825
163.564338	1894.199082	0.860813	0.006841	2.577247
163.930603	1905.158670	0.865817	0.006770	2.583557
164.603015	1916.134967	0.870822	0.006641	2.589917
165.054190	1927.200245	0.875827	0.006553	2.596272
165.514076	1938.208099	0.880832	0.006464	2.602579
166.041996	1949.218450	0.885836	0.006363	2.608886
166.525696	1960.252265	0.890841	0.006269	2.615182
166.966163	1971.281218	0.895846	0.006184	2.621452
167.589954	1982.262144	0.900850	0.006064	2.627713
167.980233	1993.342963	0.905855	0.005988	2.633973
168.625260	2004.280540	0.910860	0.005864	2.640183
169.006397	2015.395997	0.915865	0.005790	2.646431
169.551141	2026.369233	0.920869	0.005685	2.652615
170.277621	2037.378209	0.925874	0.005546	2.658835
170.992897	2048.371071	0.930879	0.005409	2.665029
171.528802	2059.420171	0.935884	0.005306	2.671209
172.268626	2070.401311	0.940888	0.005164	2.677373
172.889788	2081.451468	0.945893	0.005045	2.683539
173.596757	2092.448122	0.950898	0.004910	2.689676
174.108622	2103.506770	0.955902	0.004811	2.695800
174.690025	2114.496928	0.960907	0.004699	2.701884
175.129358	2125.558053	0.965912	0.004614	2.707969
175.682703	2136.531392	0.970917	0.004507	2.714011
176.426199	2147.559543	0.975921	0.004365	2.720102
176.938660	2158.602146	0.980926	0.004266	2.726148
177.484713	2169.637296	0.985931	0.004161	2.732182
177.818035	2180.634094	0.990936	0.004096	2.738146
178.176586	2191.669529	0.995940	0.004026	2.744122
178.673328	2202.670923	1.000945	0.003930	2.750089
179.540440	2213.667405	1.005950	0.003764	2.756103
180.016849	2224.724519	1.010954	0.003672	2.762071
180.652463	2235.718101	1.015959	0.003550	2.768018
181.163801	2246.759656	1.020964	0.003452	2.773958
181.698923	2257.761973	1.025969	0.003348	2.779867
182.243085	2268.787328	1.030973	0.003244	2.785778
182.744326	2279.841856	1.035978	0.003147	2.791684
183.095303	2290.844171	1.040983	0.003078	2.797526
183.327590	2301.870518	1.045988	0.003032	2.803348
184.108032	2312.855899	1.050992	0.002883	2.809226
184.615958	2323.884703	1.055997	0.002785	2.815070
185.225277	2334.896591	1.061002	0.002668	2.820910
185.839319	2345.944397	1.066006	0.002550	2.826756
186.292587	2356.950660	1.071011	0.002462	2.832543
187.045964	2367.947419	1.076016	0.002318	2.838362
187.544508	2378.989037	1.081021	0.002222	2.844150
188.078644	2390.019744	1.086025	0.002119	2.849927
188.570106	2401.022925	1.091030	0.002024	2.855671
188.977721	2412.062545	1.096035	0.001944	2.861408
189.560985	2423.053638	1.101039	0.001832	2.867137
190.161024	2434.089728	1.106044	0.001717	2.872880
190.516460	2445.113712	1.111049	0.001648	2.878567
190.788138	2456.153777	1.116054	0.001594	2.884237
190.988450	2467.181290	1.121058	0.001553	2.889879
191.435689	2478.185642	1.126063	0.001467	2.895536
192.002331	2489.162511	1.131068	0.001358	2.901187
192.508393	2500.205326	1.136073	0.001260	2.906851
192.755370	2511.230648	1.141077	0.001211	2.912454
193.326131	2522.230671	1.146082	0.001101	2.918084
193.830482	2533.248020	1.151087	0.001004	2.923702
194.405650	2544.279873	1.156091	0.000893	2.929326
195.026673	2555.268473	1.161096	0.000774	2.934925
195.445762	2566.340248	1.166101	0.000693	2.940524
195.975552	2577.307261	1.171106	0.000590	2.946077
196.450678	2588.372421	1.176110	0.000499	2.951660
196.809651	2599.356037	1.181115	0.000428	2.957174
197.160176	2610.407846	1.186120	0.000360	2.962710
197.669344	2621.411845	1.191125	0.000262	2.968236
198.028910	2632.446182	1.196129	0.000191	2.973744
198.252307	2643.467200	1.201134	0.000147	2.979215
198.566331	2654.469932	1.206139	0.000085	2.984681
199.235752	2665.457748	1.211143	-0.000043	2.990181
199.474643	2676.528242	1.216148	-0.000091	2.995649
200.109913	2687.498538	1.221153	-0.000213	3.001115
200.650641	2698.530156	1.226158	-0.000317	3.006588
201.163286	2709.544822	1.231162	-0.000416	3.012038
201.638677	2720.555922	1.236167	-0.000508	3.017471
202.362907	2731.560919	1.241172	-0.000646	3.022927
202.906460	2742.633705	1.246177	-0.000751	3.028380
203.403794	2753.604802	1.251181	-0.000847	3.033767
203.978120	2764.644638	1.256186	-0.000958	3.039189
204.255761	2775.677012	1.261191	-0.001012	3.044554
204.717834	2786.701303	1.266195	-0.001102	3.049933
205.101545	2797.696191	1.271200	-0.001177	3.055276
205.666376	2808.703609	1.276205	-0.001285	3.060643
206.262481	2819.710570	1.281210	-0.001400	3.066003
206.670624	2830.773791	1.286214	-0.001479	3.071355
207.077482	2841.761623	1.291219	-0.001558	3.076661
207.411745	2852.806157	1.296224	-0.001624	3.081974
207.993600	2863.777614	1.301228	-0.001736	3.087278
208.445753	2874.842532	1.306233	-0.001823	3.092599
208.831201	2885.843990	1.311238	-0.001898	3.097872
209.417266	2896.835607	1.316243	-0.002011	3.103159
209.939641	2907.883938	1.321247	-0.002112	3.108454
210.336926	2918.893264	1.326252	-0.002189	3.113705
210.684162	2929.918459	1.331257	-0.002257	3.118947
210.903735	2940.945724	1.336262	-0.002301	3.124163
211.377856	2951.954639	1.341266	-0.002392	3.129398
211.665113	2963.001465	1.346271	-0.002449	3.134615
211.896661	2973.987224	1.351276	-0.002495	3.139788
212.350429	2985.008369	1.356280	-0.002583	3.144999
212.899660	2996.014246	1.361285	-0.002689	3.150207
213.297127	3007.031049	1.366290	-0.002766	3.155391
213.758698	3018.051658	1.371295	-0.002855	3.160576
214.187189	3029.071579	1.376299	-0.002939	3.165748
214.696627	3040.075533	1.381304	-0.003037	3.170916
215.025857	3051.112748	1.386309	-0.003101	3.176065
215.489342	3062.106069	1.391314	-0.003191	3.181205
216.018447	3073.150042	1.396318	-0.003293	3.186367
216.542894	3084.144601	1.401323	-0.003394	3.191498
216.810177	3095.183221	1.406328	-0.003447	3.196607
217.450423	3106.172984	1.411332	-0.003570	3.201735
217.758958	3117.243187	1.416337	-0.003631	3.206847
218.288421	3128.211989	1.421342	-0.003733	3.211933
218.310266	3139.275952	1.426347	-0.003740	3.216988
218.707786	3150.254811	1.431351	-0.003817	3.222046
219.063539	3161.290175	1.436356	-0.003886	3.227116
219.591433	3172.268800	1.441361	-0.003988	3.232174
220.198920	3183.308999	1.446366	-0.004105	3.237263
220.594342	3194.336587	1.451370	-0.004182	3.242310
221.033954	3205.358680	1.456375	-0.004267	3.247353
221.327936	3216.350305	1.461380	-0.004325	3.252355
221.566998	3227.404037	1.466384	-0.004372	3.257370
222.038261	3238.367444	1.471389	-0.004464	3.262367
222.677842	3249.417333	1.476394	-0.004586	3.267417
222.951512	3260.438045	1.481399	-0.004640	3.272398
223.333171	3271.463744	1.486403	-0.004715	3.277388
223.757696	3282.446893	1.491408	-0.004797	3.282357
224.100089	3293.514633	1.496413	-0.004864	3.287345
224.499257	3304.485973	1.501417	-0.004942	3.292290
225.040698	3315.529048	1.506422	-0.005046	3.297277
225.434689	3326.511251	1.511427	-0.005123	3.302211
225.742194	3337.563727	1.516432	-0.005183	3.307158
226.110593	3348.572770	1.521436	-0.005255	3.312086
226.402939	3359.597591	1.526441	-0.005313	3.317004
226.846798	3370.582657	1.531446	-0.005399	3.321915
227.325050	3381.632718	1.536451	-0.005491	3.326853
227.688615	3392.623684	1.541455	-0.005562	3.331743
227.989822	3403.664412	1.546460	-0.005621	3.336639
228.471947	3414.650635	1.551465	-0.005714	3.341527
228.954255	3425.692529	1.556469	-0.005808	3.346432
229.461551	3436.674890	1.561474	-0.005906	3.351307
229.727099	3447.745408	1.566479	-0.005958	3.356183
230.216235	3458.720743	1.571484	-0.006053	3.361038
230.415548	3469.774565	1.576488	-0.006093	3.365884
231.063749	3480.737101	1.581493	-0.006217	3.370739
231.446227	3491.792061	1.586498	-0.006292	3.375595
231.805059	3502.796573	1.591503	-0.006362	3.380418
232.068018	3513.836072	1.596507	-0.006414	3.385238
232.513182	3524.826893	1.601512	-0.006500	3.390052
232.928192	3535.847976	1.606517	-0.006581	3.394869
233.374966	3546.855270	1.611521	-0.006667	3.399676
233.969897	3557.882905	1.616526	-0.006782	3.404504
234.566875	3568.881221	1.621531	-0.006896	3.409312
235.027947	3579.910937	1.626536	-0.006986	3.414110
235.276474	3590.953860	1.631540	-0.007035	3.418881
235.847740	3601.940309	1.636545	-0.007145	3.423661
236.111468	3612.971800	1.641550	-0.007197	3.428416
236.465274	3623.985128	1.646555	-0.007266	3.433167
236.821900	3634.996445	1.651559	-0.007336	3.437911
237.265756	3646.002851	1.656564	-0.007422	3.442657
237.491571	3657.041094	1.661569	-0.007467	3.447384
237.810815	3668.063039	1.666573	-0.007530	3.452109
238.215989	3679.058303	1.671578	-0.007608	3.456825
238.521347	3690.085413	1.676583	-0.007668	3.461537
238.770024	3701.096223	1.681588	-0.007718	3.466229
239.216273	3712.097430	1.686592	-0.007804	3.470934
239.753853	3723.113316	1.691597	-0.007908	3.475649
240.329521	3734.140890	1.696602	-0.008019	3.480366
240.969465	3745.130014	1.701606	-0.008141	3.485069
241.141021	3756.207094	1.706611	-0.008176	3.489748
241.417533	3767.179023	1.711616	-0.008231	3.494388
241.965375	3778.207856	1.716621	-0.008336	3.499078
242.175010	3789.238395	1.721625	-0.008378	3.503722
242.773069	3800.260026	1.726630	-0.008493	3.508402
243.321911	3811.210885	1.731635	-0.008599	3.513039
243.837678	3822.277072	1.736640	-0.008699	3.517715
244.076858	3833.291177	1.741644	-0.008746	3.522332
244.373711	3844.311807	1.746649	-0.008805	3.526951
244.670133	3855.320969	1.751654	-0.008863	3.531560
245.139426	3866.351399	1.756658	-0.008954	3.536191
245.561487	3877.337905	1.761663	-0.009036	3.540792
245.997295	3888.368583	1.766668	-0.009120	3.545407
246.450820	3899.359379	1.771673	-0.009208	3.550001
246.852431	3910.410616	1.776677	-0.009286	3.554609
247.151666	3921.413234	1.781682	-0.009345	3.559179
247.492068	3932.453326	1.786687	-0.009412	3.563763
247.852855	3943.448532	1.791692	-0.009482	3.568325
248.117080	3954.472671	1.796696	-0.009534	3.572882
248.533511	3965.472569	1.801701	-0.009615	3.577440
248.843043	3976.494182	1.806706	-0.009676	3.581990
249.162554	3987.522837	1.811710	-0.009739	3.586537
249.565453	3998.511368	1.816715	-0.009817	3.591071
249.916769	4009.550138	1.821720	-0.009886	3.595615
250.106669	4020.580365	1.826725	-0.009924	3.600131
250.732277	4031.559084	1.831729	-0.010044	3.604669
251.058829	4042.598823	1.836734	-0.010108	3.609192
251.613607	4053.584290	1.841739	-0.010215	3.613713
252.021903	4064.627572	1.846744	-0.010294	3.618236
252.337190	4075.656519	1.851748	-0.010356	3.622737
252.586871	4086.662038	1.856753	-0.010406	3.627215
252.940471	4097.678595	1.861758	-0.010475	3.631704
253.422843	4108.741600	1.866762	-0.010568	3.636220
253.773638	4119.731107	1.871767	-0.010637	3.640686
254.016250	4130.794039	1.876772	-0.010685	3.645165
254.267840	4141.761972	1.881777	-0.010735	3.649601
254.583442	4152.802849	1.886781	-0.010797	3.654068
255.032890	4163.810601	1.891786	-0.010884	3.658530
255.465452	4174.840533	1.896791	-0.010968	3.662993
256.071973	4185.834708	1.901795	-0.011084	3.667455
256.315263	4196.861502	1.906800	-0.011133	3.671887
256.788216	4207.864339	1.911805	-0.011224	3.676327
257.280561	4218.882876	1.916810	-0.011319	3.680770
257.841382	4229.901965	1.921814	-0.011427	3.685215
258.138428	4240.916563	1.926819	-0.011486	3.689626
258.411924	4251.918499	1.931824	-0.011540	3.694024
258.666192	4262.956914	1.936829	-0.011590	3.698428
259.142520	4273.962715	1.941833	-0.011682	3.702838
259.426149	4285.008500	1.946838	-0.011738	3.707238
259.627314	4295.995823	1.951843	-0.011779	3.711601
259.948951	4307.011670	1.956847	-0.011842	3.715983
260.320700	4318.026225	1.961852	-0.011914	3.720364
260.612334	4329.054217	1.966857	-0.011972	3.724737
260.949014	4340.037713	1.971862	-0.012038	3.729092
261.418635	4351.068363	1.976866	-0.012128	3.733474
261.965046	4362.083009	1.981871	-0.012234	3.737852
262.471377	4373.126963	1.986876	-0.012331	3.742232
