Wed Nov 23 17:50:12 2022

Number of Points = 2200
Depth (nm)	Load (µN)	Time (s)	Depth (V)	Load (V)
-1.163367	1.167936	0.000000	0.021223	0.997932
0.000000	7.560869	0.005005	0.021004	1.007953
1.396309	16.687857	0.010009	0.020739	1.021948
2.636864	27.306507	0.015014	0.020504	1.037789
5.094083	38.108230	0.020019	0.020040	1.054275
6.887328	49.317135	0.025024	0.019701	1.070728
9.090874	60.398358	0.030028	0.019285	1.086963
11.080669	71.570000	0.035033	0.018909	1.102972
12.961346	82.765950	0.040038	0.018553	1.118730
14.881325	93.863354	0.045043	0.018190	1.134158
16.911674	105.016721	0.050047	0.017806	1.149502
18.711151	116.156883	0.055052	0.017466	1.164518
20.507011	127.304858	0.060057	0.017126	1.179349
22.173172	138.441988	0.065061	0.016811	1.193923
23.811447	149.582008	0.070066	0.016500	1.208311
25.421775	160.682379	0.075071	0.016196	1.222469
27.170984	171.779709	0.080076	0.015865	1.236520
28.833644	182.881135	0.085080	0.015550	1.250379
30.214379	194.058223	0.090085	0.015288	1.264054
31.538962	205.151283	0.095090	0.015037	1.277461
33.088701	216.209245	0.100094	0.014743	1.290781
34.423064	227.401054	0.105099	0.014490	1.304027
35.683957	238.470951	0.110104	0.014251	1.316972
37.000728	249.524342	0.115109	0.014001	1.329795
38.353283	260.593005	0.120113	0.013744	1.342526
39.839669	271.653707	0.125118	0.013463	1.355180
41.302027	282.749260	0.130123	0.013186	1.367744
42.660691	293.823197	0.135128	0.012928	1.380130
44.104851	304.903573	0.140132	0.012654	1.392445
45.503813	315.960865	0.145137	0.012389	1.404609
46.910549	327.066999	0.150142	0.012122	1.416722
48.127556	338.134266	0.155146	0.011891	1.428620
49.679188	349.171389	0.160151	0.011597	1.440512
51.032632	360.265654	0.165156	0.011341	1.452291
52.455727	371.326618	0.170161	0.011071	1.463967
53.800324	382.397725	0.175165	0.010816	1.475531
55.104709	393.473700	0.180170	0.010568	1.486994
56.209856	404.575485	0.185175	0.010358	1.498325
57.367391	415.635668	0.190180	0.010138	1.509547
58.479885	426.676476	0.195184	0.009927	1.520652
59.830958	437.725464	0.200189	0.009670	1.531766
60.891221	448.826579	0.205194	0.009469	1.542749
62.022313	459.859964	0.210198	0.009254	1.553613
62.915853	470.981089	0.215203	0.009083	1.564405
64.079165	481.972422	0.220208	0.008862	1.575090
65.244778	493.024941	0.225213	0.008641	1.585761
66.268764	504.103276	0.230217	0.008446	1.596337
67.411644	515.132276	0.235222	0.008229	1.606836
68.527226	526.197203	0.240227	0.008017	1.617290
69.539934	537.264196	0.245232	0.007824	1.627646
70.510869	548.317154	0.250236	0.007639	1.637909
71.674245	559.322105	0.255241	0.007418	1.648126
72.724825	570.408186	0.260246	0.007218	1.658316
73.673262	581.437726	0.265250	0.007037	1.668362
74.594259	592.525885	0.270255	0.006862	1.678389
75.679331	603.517981	0.275260	0.006656	1.688324
77.027988	614.560803	0.280265	0.006400	1.698325
78.144385	625.604072	0.285269	0.006188	1.708196
79.126378	636.704334	0.290274	0.006001	1.718018
80.274169	647.691865	0.295279	0.005782	1.727738
81.422092	658.758692	0.300283	0.005564	1.737469
82.283857	669.822506	0.305288	0.005400	1.747059
83.625155	680.824450	0.310293	0.005146	1.756685
84.716952	691.894788	0.315298	0.004938	1.766242
85.568851	702.963498	0.320302	0.004775	1.775676
86.629797	713.966314	0.325307	0.004574	1.785066
87.541542	725.045175	0.330312	0.004400	1.794426
88.486070	736.066722	0.335317	0.004220	1.803699
89.790170	747.053616	0.340321	0.003972	1.812999
90.722309	758.149920	0.345326	0.003795	1.822233
91.685859	769.206842	0.350331	0.003611	1.831398
92.574634	780.237562	0.355335	0.003442	1.840475
93.402772	791.301072	0.360340	0.003283	1.849516
94.288212	802.307295	0.365345	0.003115	1.858483
95.309788	813.329601	0.370350	0.002920	1.867457
96.302972	824.399076	0.375354	0.002731	1.876417
97.449281	835.356453	0.380359	0.002513	1.885288
98.617453	846.423657	0.385364	0.002291	1.894208
99.584000	857.494492	0.390369	0.002107	1.903034
100.595292	868.516429	0.395373	0.001915	1.911793
101.641771	879.560607	0.400378	0.001716	1.920539
102.566279	890.596037	0.405383	0.001539	1.929205
103.617310	901.648555	0.410387	0.001340	1.937878
104.312191	912.685932	0.415392	0.001206	1.946408
105.350250	923.683383	0.420397	0.001009	1.954960
106.277743	934.722712	0.425402	0.000832	1.963476
107.331361	945.769446	0.430406	0.000632	1.971993
108.307897	956.801865	0.435411	0.000446	1.980443
109.294234	967.829358	0.440416	0.000258	1.988856
110.310695	978.839829	0.445421	0.000064	1.997227
111.427573	989.885152	0.450425	-0.000148	2.005614
112.611536	1000.904363	0.455430	-0.000373	2.013964
113.454848	1012.001332	0.460435	-0.000534	2.022250
114.265515	1023.003946	0.465439	-0.000689	2.030425
115.286656	1034.058131	0.470444	-0.000883	2.038657
115.945248	1045.093398	0.475449	-0.001009	2.046752
116.721351	1056.150246	0.480454	-0.001158	2.054859
117.660145	1067.111536	0.485458	-0.001336	2.062906
118.371730	1078.213224	0.490463	-0.001473	2.070965
119.362935	1089.186225	0.495468	-0.001661	2.078970
120.414690	1100.204516	0.500472	-0.001861	2.086990
121.259046	1111.286077	0.505477	-0.002023	2.094973
122.206358	1122.288362	0.510482	-0.002203	2.102895
123.042827	1133.318727	0.515487	-0.002363	2.110780
123.931768	1144.346369	0.520491	-0.002532	2.118646
124.627842	1155.425489	0.525496	-0.002666	2.126473
125.356574	1166.438975	0.530501	-0.002805	2.134233
126.096179	1177.440565	0.535506	-0.002947	2.141959
127.240065	1188.463203	0.540510	-0.003164	2.149765
127.629189	1199.544905	0.545515	-0.003240	2.157409
128.335802	1210.562616	0.550520	-0.003375	2.165055
129.302979	1221.540289	0.555524	-0.003559	2.172706
130.115616	1232.604375	0.560529	-0.003715	2.180353
130.737220	1243.634833	0.565534	-0.003834	2.187907
131.570847	1254.671294	0.570539	-0.003993	2.195487
131.962617	1265.707956	0.575543	-0.004069	2.202941
132.955711	1276.702427	0.580548	-0.004258	2.210476
133.560202	1287.743089	0.585553	-0.004375	2.217930
134.399011	1298.762818	0.590558	-0.004535	2.225396
135.129538	1309.785202	0.595562	-0.004674	2.232815
135.823891	1320.829065	0.600567	-0.004807	2.240216
136.671800	1331.823532	0.605572	-0.004969	2.247593
137.373959	1342.933434	0.610576	-0.005104	2.254988
137.934541	1353.892837	0.615581	-0.005212	2.262231
138.825594	1364.918028	0.620586	-0.005382	2.269565
139.357499	1375.969880	0.625591	-0.005484	2.276815
140.079245	1386.977944	0.630595	-0.005622	2.284054
140.877241	1397.988412	0.635600	-0.005775	2.291287
141.887581	1409.000408	0.640605	-0.005967	2.298544
142.636975	1420.047244	0.645610	-0.006110	2.305745
143.539245	1431.078242	0.650614	-0.006282	2.312945
143.837850	1442.152299	0.655619	-0.006341	2.320022
144.787972	1453.106378	0.660624	-0.006522	2.327139
145.366544	1464.181602	0.665628	-0.006634	2.334232
146.389689	1475.147761	0.670633	-0.006828	2.341328
146.952661	1486.224102	0.675638	-0.006937	2.348375
147.561770	1497.257202	0.680643	-0.007054	2.355384
148.472457	1508.206794	0.685647	-0.007227	2.362382
149.340428	1519.278527	0.690652	-0.007393	2.369426
150.144234	1530.289209	0.695657	-0.007546	2.376398
150.990534	1541.340775	0.700661	-0.007708	2.383382
151.485480	1552.353945	0.705666	-0.007804	2.390252
152.339348	1563.388245	0.710671	-0.007966	2.397187
153.013480	1574.383990	0.715676	-0.008096	2.404042
154.000126	1585.427947	0.720680	-0.008284	2.410969
154.461590	1596.465948	0.725685	-0.008373	2.417767
155.287134	1607.463720	0.730690	-0.008531	2.424595
155.738754	1618.519328	0.735695	-0.008618	2.431364
156.373117	1629.532558	0.740699	-0.008740	2.438124
157.399081	1640.494930	0.745704	-0.008935	2.444912
158.309201	1651.566336	0.750709	-0.009109	2.451723
159.035944	1662.560537	0.755713	-0.009248	2.458433
159.711069	1673.633672	0.760718	-0.009377	2.465162
160.382442	1684.624066	0.765723	-0.009506	2.471822
161.095765	1695.693682	0.770728	-0.009642	2.478520
161.673888	1706.670091	0.775732	-0.009754	2.485118
162.628269	1717.711390	0.780737	-0.009935	2.491808
163.286027	1728.726205	0.785742	-0.010061	2.498408
164.168956	1739.722249	0.790747	-0.010230	2.505022
164.785070	1750.778530	0.795751	-0.010348	2.511603
165.489114	1761.816904	0.800756	-0.010483	2.518173
165.952120	1772.818874	0.805761	-0.010573	2.524660
166.775031	1783.861325	0.810765	-0.010730	2.531220
167.205480	1794.867339	0.815770	-0.010813	2.537668
168.108263	1805.874243	0.820775	-0.010985	2.544189
168.749212	1816.900136	0.825780	-0.011108	2.550655
169.434441	1827.952889	0.830784	-0.011240	2.557128
169.848742	1838.981077	0.835789	-0.011320	2.563521
170.456049	1849.997962	0.840794	-0.011437	2.569926
170.980444	1861.059972	0.845799	-0.011538	2.576326
171.608689	1872.044543	0.850803	-0.011659	2.582684
172.177879	1883.035770	0.855808	-0.011768	2.589020
172.784435	1894.070355	0.860813	-0.011885	2.595372
173.322371	1905.090537	0.865817	-0.011988	2.601687
174.169627	1916.101958	0.870822	-0.012150	2.608038
174.662598	1927.133903	0.875827	-0.012245	2.614321
175.498185	1938.137975	0.880832	-0.012405	2.620634
175.908636	1949.187994	0.885836	-0.012485	2.626882
176.530906	1960.223099	0.890841	-0.012604	2.633144
177.019253	1971.208282	0.895846	-0.012698	2.639340
177.687971	1982.240524	0.900850	-0.012827	2.645578
178.126202	1993.269977	0.905855	-0.012912	2.651760
179.062252	2004.261476	0.910860	-0.013090	2.657994
179.812233	2015.292597	0.915865	-0.013233	2.664202
180.314392	2026.335809	0.920869	-0.013330	2.670359
181.041976	2037.318323	0.925874	-0.013470	2.676508
181.758654	2048.349358	0.930879	-0.013607	2.682666
182.335159	2059.353118	0.935884	-0.013718	2.688772
183.129585	2070.367128	0.940888	-0.013869	2.694906
183.977510	2081.379446	0.945893	-0.014031	2.701035
184.498654	2092.437400	0.950898	-0.014132	2.707118
185.096150	2103.441931	0.955902	-0.014247	2.713171
185.912925	2114.428225	0.960907	-0.014403	2.719239
186.418107	2125.505666	0.965912	-0.014500	2.725289
187.107539	2136.513206	0.970917	-0.014632	2.731318
187.781273	2147.517069	0.975921	-0.014761	2.737330
188.422089	2158.535278	0.980926	-0.014884	2.743331
188.929471	2169.571075	0.985931	-0.014982	2.749305
189.690265	2180.578543	0.990936	-0.015128	2.755293
190.407725	2191.589195	0.995940	-0.015265	2.761263
190.818198	2202.652198	1.000945	-0.015345	2.767196
191.476539	2213.628350	1.005950	-0.015471	2.773112
192.389671	2224.641002	1.010954	-0.015645	2.779076
192.949589	2235.674690	1.015959	-0.015753	2.784980
193.636992	2246.712990	1.020964	-0.015885	2.790894
194.099374	2257.731800	1.025969	-0.015974	2.796749
194.800357	2268.753214	1.030973	-0.016108	2.802632
195.250377	2279.743195	1.035978	-0.016196	2.808445
196.133277	2290.783422	1.040983	-0.016364	2.814342
196.778249	2301.794300	1.045988	-0.016488	2.820173
197.379861	2312.832561	1.050992	-0.016603	2.825999
198.021546	2323.832456	1.055997	-0.016727	2.831800
198.610942	2334.868231	1.061002	-0.016840	2.837598
199.126466	2345.884691	1.066006	-0.016939	2.843363
199.798878	2356.900593	1.071011	-0.017068	2.849141
200.435625	2367.905045	1.076016	-0.017190	2.854895
201.077553	2378.957084	1.081021	-0.017314	2.860662
201.792081	2389.928004	1.086025	-0.017450	2.866388
202.223894	2401.018463	1.091030	-0.017534	2.872119
202.669406	2411.991854	1.096035	-0.017621	2.877781
203.389533	2423.015529	1.101039	-0.017758	2.883499
203.874047	2434.028311	1.106044	-0.017852	2.889165
204.706618	2445.076934	1.111049	-0.018011	2.894891
205.145243	2456.073689	1.116054	-0.018096	2.900518
205.709115	2467.095508	1.121058	-0.018205	2.906166
206.310875	2478.124755	1.126063	-0.018320	2.911813
206.944268	2489.124183	1.131068	-0.018442	2.917439
207.431841	2500.129007	1.136073	-0.018536	2.923034
207.955524	2511.198161	1.141077	-0.018637	2.928655
208.555066	2522.169171	1.146082	-0.018752	2.934229
209.232000	2533.201484	1.151087	-0.018882	2.939834
209.769100	2544.209610	1.156091	-0.018985	2.945395
210.483742	2555.281501	1.161096	-0.019122	2.951003
210.721233	2566.262884	1.166101	-0.019170	2.956485
211.261711	2577.292440	1.171106	-0.019274	2.962025
211.755068	2588.311991	1.176110	-0.019369	2.967543
212.415262	2599.318005	1.181115	-0.019496	2.973068
212.750099	2610.324192	1.186120	-0.019561	2.978535
213.402727	2621.375274	1.191125	-0.019686	2.984061
213.858797	2632.360929	1.196129	-0.019775	2.989516
214.442208	2643.420733	1.201134	-0.019887	2.995015
214.737781	2654.428265	1.206139	-0.019945	3.000437
215.549295	2665.407257	1.211143	-0.020100	3.005910
216.040982	2676.476299	1.216148	-0.020195	3.011370
216.540922	2687.467684	1.221153	-0.020292	3.016783
216.871431	2698.478636	1.226158	-0.020356	3.022172
217.380953	2709.522463	1.231162	-0.020455	3.027593
217.975426	2720.512733	1.236167	-0.020569	3.032990
218.422361	2731.555697	1.241172	-0.020656	3.038382
218.722998	2742.572280	1.246177	-0.020715	3.043730
219.268173	2753.593449	1.251181	-0.020820	3.049106
219.605962	2764.604036	1.256186	-0.020886	3.054438
220.144297	2775.601896	1.261191	-0.020990	3.059783
220.557621	2786.637176	1.266195	-0.021070	3.065118
221.183864	2797.646515	1.271200	-0.021190	3.070462
221.652684	2808.677885	1.276205	-0.021281	3.075785
222.332105	2819.697264	1.281210	-0.021411	3.081122
222.719291	2830.696116	1.286214	-0.021486	3.086399
223.185487	2841.731026	1.291219	-0.021577	3.091696
223.615780	2852.727314	1.296224	-0.021660	3.096959
224.184746	2863.759995	1.301228	-0.021769	3.102250
224.667956	2874.776494	1.306233	-0.021863	3.107513
225.205483	2885.806122	1.311238	-0.021966	3.112780
225.562118	2896.817906	1.316243	-0.022036	3.118005
225.980422	2907.837046	1.321247	-0.022117	3.123232
226.508873	2918.839361	1.326252	-0.022219	3.128459
227.174642	2929.860379	1.331257	-0.022347	3.133704
227.688360	2940.876943	1.336262	-0.022446	3.138917
228.207057	2951.892806	1.341266	-0.022546	3.144121
228.596609	2962.920994	1.346271	-0.022622	3.149306
229.212111	2973.943331	1.351276	-0.022740	3.154509
229.463459	2984.973102	1.356280	-0.022790	3.159658
230.010020	2995.963226	1.361285	-0.022895	3.164820
230.428722	3006.996345	1.366290	-0.022977	3.169976
230.822353	3018.007104	1.371295	-0.023053	3.175109
231.164885	3029.038098	1.376299	-0.023120	3.180237
231.637719	3040.046617	1.381304	-0.023212	3.185364
232.078720	3051.055405	1.386309	-0.023297	3.190478
232.660076	3062.066766	1.391314	-0.023409	3.195604
233.208363	3073.078706	1.396318	-0.023514	3.200717
233.774710	3084.116582	1.401323	-0.023623	3.205836
234.075775	3095.148849	1.406328	-0.023683	3.210909
234.582401	3106.111282	1.411332	-0.023780	3.215970
235.084067	3117.158891	1.416337	-0.023877	3.221060
235.664859	3128.184447	1.421342	-0.023989	3.226143
235.967434	3139.195220	1.426347	-0.024049	3.231174
236.488590	3150.219149	1.431351	-0.024149	3.236232
236.862172	3161.223150	1.436356	-0.024222	3.241254
237.529170	3172.229453	1.441361	-0.024350	3.246307
237.997749	3183.261360	1.446366	-0.024440	3.251338
238.485517	3194.291434	1.451370	-0.024535	3.256362
238.818396	3205.298586	1.456375	-0.024600	3.261349
239.272588	3216.328581	1.461380	-0.024688	3.266353
239.566415	3227.329739	1.466384	-0.024746	3.271317
240.011779	3238.361186	1.471389	-0.024832	3.276305
240.496776	3249.353082	1.476394	-0.024926	3.281274
240.829520	3260.413983	1.481399	-0.024991	3.286246
241.159426	3271.399405	1.486403	-0.025056	3.291177
241.591941	3282.425852	1.491408	-0.025139	3.296131
242.027752	3293.426838	1.496413	-0.025224	3.301067
242.429525	3304.472736	1.501417	-0.025302	3.306011
242.614801	3315.473436	1.506422	-0.025340	3.310900
243.143547	3326.498560	1.511427	-0.025441	3.315836
243.564101	3337.496913	1.516432	-0.025523	3.320739
244.169281	3348.529917	1.521436	-0.025639	3.325673
244.490955	3359.527918	1.526441	-0.025702	3.330549
245.114646	3370.550256	1.531446	-0.025822	3.335466
245.386185	3381.567709	1.536451	-0.025876	3.340330
245.843466	3392.601223	1.541455	-0.025964	3.345216
246.200798	3403.607285	1.546460	-0.026034	3.350071
246.478389	3414.628479	1.551465	-0.026089	3.354916
246.867686	3425.633048	1.556469	-0.026165	3.359760
247.386901	3436.660472	1.561474	-0.026265	3.364623
247.621762	3447.694262	1.566479	-0.026312	3.369447
247.933664	3458.689388	1.571484	-0.026373	3.374256
248.132102	3469.714247	1.576488	-0.026413	3.379058
248.588318	3480.727655	1.581493	-0.026501	3.383879
248.826000	3491.751026	1.586498	-0.026549	3.388671
249.105934	3502.759615	1.591503	-0.026604	3.393455
249.662171	3513.735978	1.596507	-0.026711	3.398251
249.995171	3524.810170	1.601512	-0.026776	3.403056
250.402429	3535.806960	1.606517	-0.026855	3.407829
250.913479	3546.806006	1.611521	-0.026954	3.412609
251.230404	3557.836952	1.616526	-0.027016	3.417373
251.711251	3568.841777	1.621531	-0.027109	3.422139
252.111338	3579.865040	1.626536	-0.027187	3.426896
252.544885	3590.887420	1.631540	-0.027271	3.431649
252.858671	3601.903623	1.636545	-0.027333	3.436380
253.240004	3612.925458	1.641550	-0.027407	3.441114
253.524101	3623.931581	1.646555	-0.027463	3.445824
253.952421	3634.964815	1.651559	-0.027546	3.450555
254.256093	3645.952075	1.656564	-0.027606	3.455246
254.641114	3657.006010	1.661569	-0.027681	3.459968
255.079062	3668.003197	1.666573	-0.027766	3.464666
255.460326	3679.027585	1.671578	-0.027840	3.469362
256.098598	3689.993818	1.676583	-0.027962	3.474057
256.634458	3701.065169	1.681588	-0.028066	3.478777
256.930420	3712.053431	1.686592	-0.028124	3.483429
257.458539	3723.090704	1.691597	-0.028226	3.488122
257.828792	3734.076134	1.696602	-0.028298	3.492768
258.332120	3745.115621	1.701606	-0.028395	3.497446
258.381641	3756.133355	1.706611	-0.028407	3.502057
258.892313	3767.172566	1.711616	-0.028506	3.506723
259.329559	3778.140515	1.716621	-0.028590	3.511345
259.744673	3789.183364	1.721625	-0.028671	3.515989
260.316447	3800.176893	1.726630	-0.028781	3.520625
260.606398	3811.238530	1.731635	-0.028838	3.525250
260.820242	3822.231612	1.736640	-0.028881	3.529833
261.352657	3833.233702	1.741644	-0.028984	3.534449
261.788944	3844.258522	1.746649	-0.029068	3.539057
262.299819	3855.291593	1.751654	-0.029167	3.543671
262.670732	3866.299259	1.756658	-0.029239	3.548253
262.997147	3877.300119	1.761663	-0.029303	3.552821
263.231636	3888.320438	1.766668	-0.029350	3.557381
263.879425	3899.333708	1.771673	-0.029474	3.561978
264.152772	3910.350460	1.776677	-0.029528	3.566529
264.626514	3921.360547	1.781682	-0.029620	3.571093
264.876829	3932.395425	1.786687	-0.029669	3.575637
265.206524	3943.402685	1.791692	-0.029734	3.580173
265.519716	3954.425558	1.796696	-0.029796	3.584707
265.875418	3965.435227	1.801701	-0.029865	3.589235
266.365904	3976.424688	1.806706	-0.029960	3.593764
266.953895	3987.480813	1.811710	-0.030073	3.598324
267.361965	3998.473281	1.816715	-0.030152	3.602833
267.798219	4009.523218	1.821720	-0.030237	3.607363
268.062485	4020.495899	1.826725	-0.030289	3.611837
268.457230	4031.548921	1.831729	-0.030366	3.616352
268.705059	4042.546856	1.836734	-0.030415	3.620823
269.285223	4053.555712	1.841739	-0.030527	3.625329
269.408226	4064.573444	1.846744	-0.030552	3.629784
269.618985	4075.618868	1.851748	-0.030595	3.634253
269.984029	4086.592290	1.856753	-0.030666	3.638705
270.361369	4097.654789	1.861758	-0.030740	3.643188
270.596689	4108.714941	1.866762	-0.030786	3.647650
270.937485	4119.701829	1.871767	-0.030853	3.652088
271.429341	4130.697021	1.876772	-0.030948	3.656540
271.900298	4141.729519	1.881777	-0.031039	3.660998
272.214407	4152.747385	1.886781	-0.031101	3.665429
272.525458	4163.777316	1.891786	-0.031162	3.669860
272.793440	4174.781135	1.896791	-0.031215	3.674269
273.270858	4185.793130	1.901795	-0.031307	3.678699
273.628049	4196.827422	1.906800	-0.031377	3.683119
274.082892	4207.875790	1.911805	-0.031465	3.687550
274.420674	4218.802822	1.916810	-0.031531	3.691915
274.708254	4229.859541	1.921814	-0.031588	3.696321
274.849080	4240.875424	1.926819	-0.031617	3.700691
275.200981	4251.908952	1.931824	-0.031686	3.705084
275.761767	4262.895345	1.936829	-0.031794	3.709474
276.041235	4273.932484	1.941833	-0.031849	3.713851
276.406503	4284.943207	1.946838	-0.031920	3.718220
276.829846	4295.965695	1.951843	-0.032002	3.722595
277.194006	4306.988163	1.956847	-0.032073	3.726959
277.274290	4317.970448	1.961852	-0.032091	3.731273
277.621579	4329.001974	1.966857	-0.032159	3.735628
278.157577	4340.008466	1.971862	-0.032262	3.739987
