Wed Nov 23 17:12:02 2022

Number of Points = 2200
Depth (nm)	Load (µN)	Time (s)	Depth (V)	Load (V)
-0.626418	1.576142	0.000000	0.053209	0.900145
0.000000	7.437961	0.005005	0.053090	0.910106
0.750445	16.220482	0.010009	0.052947	0.924717
1.753588	26.675501	0.015014	0.052756	0.941877
2.554832	37.664722	0.020019	0.052603	0.959438
3.502809	48.808237	0.025024	0.052423	0.976999
3.805867	60.113387	0.030028	0.052363	0.994134
4.588262	71.202312	0.035033	0.052213	1.010921
5.028116	82.429637	0.040038	0.052128	1.027450
5.512639	93.613529	0.045043	0.052034	1.043679
5.898166	104.776294	0.050047	0.051959	1.059579
6.433982	115.900492	0.055052	0.051856	1.075266
6.636111	127.112877	0.060057	0.051815	1.090680
7.152869	138.198773	0.065061	0.051716	1.105865
7.483709	149.353587	0.070066	0.051651	1.120844
7.872393	160.487572	0.075071	0.051575	1.135627
8.215977	171.598174	0.080076	0.051508	1.150167
8.532457	182.720042	0.085080	0.051446	1.164528
15.205912	192.391532	0.090085	0.050191	1.179821
16.974773	204.505356	0.095090	0.049856	1.195708
17.936491	215.815633	0.100094	0.049673	1.210044
18.813757	227.057420	0.105099	0.049506	1.224091
19.457266	238.172485	0.110104	0.049382	1.237725
20.171257	249.304384	0.115109	0.049245	1.251260
20.710118	260.406269	0.120113	0.049142	1.264539
21.533531	271.459797	0.125118	0.048984	1.277745
22.311116	282.529692	0.130123	0.048836	1.290814
23.751992	293.562239	0.135128	0.048563	1.303984
24.278733	304.767233	0.140132	0.048461	1.316841
25.666668	315.669686	0.145137	0.048198	1.329585
26.743159	326.806625	0.150142	0.047993	1.342341
27.560278	337.960697	0.155146	0.047837	1.354892
27.961317	349.110355	0.160151	0.047759	1.367160
28.841409	360.101181	0.165156	0.047591	1.379334
29.990863	371.128522	0.170161	0.047373	1.391543
30.466476	382.286915	0.175165	0.047281	1.403526
31.234318	393.351941	0.180170	0.047134	1.415421
32.095116	404.404762	0.185175	0.046970	1.427238
32.758564	415.461709	0.190180	0.046842	1.438889
33.366483	426.595848	0.195184	0.046726	1.450504
34.001887	437.627642	0.200189	0.046604	1.461933
34.574343	448.705050	0.205194	0.046493	1.473296
35.090195	459.768387	0.210198	0.046394	1.484537
35.610274	470.860084	0.215203	0.046294	1.495723
35.889190	481.921654	0.220208	0.046239	1.506711
36.401851	492.980144	0.225213	0.046140	1.517698
36.941713	503.993628	0.230217	0.046036	1.528572
37.663512	515.039735	0.235222	0.045897	1.539463
38.215771	526.095302	0.240227	0.045791	1.550227
39.042714	537.153163	0.245232	0.045633	1.561013
39.589784	548.200778	0.250236	0.045528	1.571620
40.118699	559.314635	0.255241	0.045426	1.582212
40.490164	570.337370	0.260246	0.045353	1.592596
41.125429	581.375866	0.265250	0.045231	1.603014
41.571414	592.449181	0.270255	0.045145	1.613335
41.924873	603.542919	0.275260	0.045076	1.623578
42.344844	614.549560	0.280265	0.044994	1.633700
42.964362	625.582379	0.285269	0.044875	1.643846
43.379864	636.627079	0.290274	0.044795	1.653876
44.043657	647.658564	0.295279	0.044667	1.663911
44.408499	658.755441	0.300283	0.044596	1.673850
44.878501	669.772685	0.305288	0.044505	1.683693
45.249151	680.861473	0.310293	0.044433	1.693511
45.857655	691.848688	0.315298	0.044316	1.703256
46.226295	702.923348	0.320302	0.044244	1.712948
47.161778	713.882296	0.325307	0.044066	1.722658
47.744188	724.961896	0.330312	0.043954	1.732309
48.401912	736.041490	0.335317	0.043828	1.741930
48.919361	747.077029	0.340321	0.043728	1.751418
49.581036	758.098043	0.345326	0.043601	1.760885
49.705975	769.214818	0.350331	0.043575	1.770224
50.548122	780.177431	0.355335	0.043414	1.779595
50.765407	791.272245	0.360340	0.043371	1.788844
51.179614	802.312403	0.365345	0.043290	1.798058
51.475545	813.344464	0.370350	0.043232	1.807183
51.982158	824.396411	0.375354	0.043134	1.816339
52.405760	835.389824	0.380359	0.043052	1.825378
52.809570	846.448634	0.385364	0.042973	1.834420
53.322018	857.471629	0.390369	0.042874	1.843418
53.742765	868.540694	0.395373	0.042793	1.852384
54.238009	879.559327	0.400378	0.042697	1.861287
54.735129	890.574334	0.405383	0.042601	1.870145
55.264083	901.638799	0.410387	0.042499	1.879009
55.989205	912.630142	0.415392	0.042360	1.887827
56.482140	923.703486	0.420397	0.042265	1.896605
57.009653	934.717172	0.425402	0.042163	1.905305
57.314679	945.791589	0.430406	0.042103	1.913952
57.855941	956.827646	0.435411	0.041999	1.922594
58.138657	967.845933	0.440416	0.041943	1.931115
59.062262	978.822289	0.445421	0.041767	1.939736
59.390218	989.915664	0.450425	0.041703	1.948250
59.927946	1000.950945	0.455430	0.041599	1.956738
60.363108	1011.970479	0.460435	0.041515	1.965151
60.876920	1023.023937	0.465439	0.041416	1.973573
61.290577	1034.048241	0.470444	0.041336	1.981912
61.786377	1045.098258	0.475449	0.041240	1.990256
62.050534	1056.114397	0.480454	0.041187	1.998481
62.658199	1067.146180	0.485458	0.041071	2.006770
63.278952	1078.148776	0.490463	0.040951	2.015007
64.287264	1089.158694	0.495468	0.040760	2.023313
64.317118	1100.304578	0.500472	0.040751	2.031439
64.923553	1111.263791	0.505477	0.040635	2.039541
65.148063	1122.339755	0.510482	0.040590	2.047600
65.544161	1133.352771	0.515487	0.040513	2.055625
65.936789	1144.354532	0.520491	0.040436	2.063609
66.520737	1155.411738	0.525496	0.040324	2.071648
66.981194	1166.412165	0.530501	0.040235	2.079586
67.394405	1177.478959	0.535506	0.040155	2.087529
67.648292	1188.535014	0.540510	0.040104	2.095396
68.205110	1199.485102	0.545515	0.039997	2.103231
68.720956	1210.533239	0.550520	0.039898	2.111096
70.126636	1221.445095	0.555524	0.039631	2.119048
70.840213	1232.575827	0.560529	0.039494	2.126958
71.194998	1243.679260	0.565534	0.039425	2.134735
71.571867	1254.636057	0.570539	0.039352	2.142388
72.097323	1265.710977	0.575543	0.039250	2.150129
72.454509	1276.699288	0.580548	0.039181	2.157744
73.872193	1287.654856	0.585553	0.038912	2.165554
74.451095	1298.753401	0.590558	0.038801	2.173241
74.656416	1309.841804	0.595562	0.038759	2.180807
75.319408	1320.800772	0.600567	0.038632	2.188364
75.835362	1331.865881	0.605572	0.038533	2.195933
77.523762	1342.708712	0.610576	0.038213	2.203592
78.096148	1353.927349	0.615581	0.038103	2.211224
78.695200	1364.895707	0.620586	0.037988	2.218668
79.381417	1375.946542	0.625591	0.037856	2.226162
79.634635	1387.037099	0.630595	0.037806	2.233560
80.169351	1398.019591	0.635600	0.037703	2.240924
80.300415	1409.065040	0.640605	0.037676	2.248217
80.992245	1420.097571	0.645610	0.037543	2.255601
81.173337	1431.116284	0.650614	0.037506	2.262839
81.932265	1442.100515	0.655619	0.037361	2.270158
82.213160	1453.139548	0.660624	0.037306	2.277385
82.899308	1464.173379	0.665628	0.037174	2.284673
83.167403	1475.209673	0.670633	0.037121	2.291850
83.498415	1486.262698	0.675638	0.037056	2.299028
83.869191	1497.246103	0.680643	0.036984	2.306147
84.543722	1508.267587	0.685647	0.036855	2.313334
84.740536	1519.311185	0.690652	0.036815	2.320411
85.374012	1530.315732	0.695657	0.036694	2.327533
85.890964	1541.354234	0.700661	0.036594	2.334631
86.365507	1552.368185	0.705666	0.036502	2.341682
86.943543	1563.373823	0.710671	0.036391	2.348729
87.430694	1574.456773	0.715676	0.036297	2.355784
87.752474	1585.434061	0.720680	0.036234	2.362717
88.451000	1596.455054	0.725685	0.036100	2.369735
88.864982	1607.508364	0.730690	0.036019	2.376693
89.013405	1618.560164	0.735695	0.035989	2.383576
89.465008	1629.542071	0.740699	0.035901	2.390457
89.772873	1640.593079	0.745704	0.035841	2.397332
90.209792	1651.611143	0.750709	0.035756	2.404193
90.579647	1662.633196	0.755713	0.035684	2.411024
90.794208	1673.663476	0.760718	0.035641	2.417809
91.107889	1684.670960	0.765723	0.035580	2.424580
91.459801	1695.705381	0.770728	0.035511	2.431357
91.910857	1706.728030	0.775732	0.035423	2.438127
92.074325	1717.755230	0.780737	0.035390	2.444824
92.440558	1728.783346	0.785742	0.035319	2.451543
92.785425	1739.779051	0.790747	0.035251	2.458221
93.193889	1750.807850	0.795751	0.035172	2.464912
96.145981	1761.264115	0.800756	0.034615	2.471739
101.151138	1772.640244	0.805761	0.033673	2.479493
101.465144	1783.873532	0.810765	0.033612	2.486228
101.760169	1794.942150	0.815770	0.033553	2.492844
102.218465	1805.905753	0.820775	0.033465	2.499412
102.738437	1816.949874	0.825780	0.033364	2.506021
103.290118	1827.951397	0.830784	0.033258	2.512594
103.662034	1838.996895	0.835789	0.033186	2.519142
104.044042	1850.018688	0.840794	0.033111	2.525660
104.411055	1861.036316	0.845799	0.033040	2.532156
105.223938	1872.022234	0.850803	0.032884	2.538701
105.709617	1883.078859	0.855808	0.032791	2.545208
105.996948	1894.106794	0.860813	0.032734	2.551645
106.290994	1905.158383	0.865817	0.032676	2.558081
106.614832	1916.131725	0.870822	0.032613	2.564461
106.931988	1927.214450	0.875827	0.032550	2.570886
107.506758	1938.202839	0.880832	0.032440	2.577289
108.123252	1949.192530	0.885836	0.032321	2.583684
108.291762	1960.270450	0.890841	0.032287	2.590031
108.710755	1971.230208	0.895846	0.032206	2.596342
109.297118	1982.259629	0.900850	0.032093	2.602706
109.914503	1993.264111	0.905855	0.031974	2.609047
110.621783	2004.290387	0.910860	0.031839	2.615401
110.945186	2015.357151	0.915865	0.031775	2.621692
111.457319	2026.343309	0.920869	0.031677	2.627957
112.058442	2037.367537	0.925874	0.031561	2.634245
112.553917	2048.358737	0.930879	0.031465	2.640479
113.087631	2059.401087	0.935884	0.031362	2.646735
113.686396	2070.429895	0.940888	0.031247	2.652979
114.074880	2081.430278	0.945893	0.031172	2.659155
114.540192	2092.445862	0.950898	0.031082	2.665339
114.943853	2103.489710	0.955902	0.031003	2.671514
115.332952	2114.476404	0.960907	0.030928	2.677640
115.918216	2125.511202	0.965912	0.030815	2.683812
116.264899	2136.569205	0.970917	0.030747	2.689942
116.787833	2147.536004	0.975921	0.030646	2.696038
117.142612	2158.594665	0.980926	0.030577	2.702141
117.826535	2169.570741	0.985931	0.030446	2.708242
118.253712	2180.613887	0.990936	0.030363	2.714322
118.595508	2191.660906	0.995940	0.030296	2.720375
118.946135	2202.674777	1.000945	0.030228	2.726398
119.317385	2213.722582	1.005950	0.030155	2.732430
119.560288	2224.690717	1.010954	0.030107	2.738383
120.080215	2235.710408	1.015959	0.030007	2.744399
120.431694	2246.757771	1.020964	0.029938	2.750387
120.779758	2257.773538	1.025969	0.029870	2.756345
121.110642	2268.786216	1.030973	0.029805	2.762285
121.297050	2279.824906	1.035978	0.029768	2.768202
121.834395	2290.795825	1.040983	0.029664	2.774129
122.352184	2301.849387	1.045988	0.029564	2.780083
122.562816	2312.852774	1.050992	0.029522	2.785948
123.097672	2323.907284	1.055997	0.029419	2.791880
123.381776	2334.888223	1.061002	0.029363	2.797720
124.154739	2345.884407	1.066006	0.029215	2.803635
124.655871	2356.942392	1.071011	0.029118	2.809526
125.268894	2367.952447	1.076016	0.029000	2.815398
125.578245	2378.980229	1.081021	0.028940	2.821217
125.980659	2390.003470	1.086025	0.028861	2.827037
126.439034	2401.006168	1.091030	0.028773	2.832843
127.023981	2412.024639	1.096035	0.028660	2.838665
127.618190	2423.028641	1.101039	0.028546	2.844470
128.376503	2434.064846	1.106044	0.028401	2.850305
128.748525	2445.098791	1.111049	0.028328	2.856065
129.109119	2456.125051	1.116054	0.028258	2.861808
129.491427	2467.116792	1.121058	0.028184	2.867525
130.049277	2478.151682	1.126063	0.028076	2.873281
130.331451	2489.176562	1.131068	0.028020	2.878976
130.629158	2500.202338	1.136073	0.027962	2.884663
131.089239	2511.222367	1.141077	0.027873	2.890361
131.483761	2522.236976	1.146082	0.027796	2.896034
132.031689	2533.235200	1.151087	0.027691	2.901712
132.565809	2544.256153	1.156091	0.027588	2.907388
132.648891	2555.314591	1.161096	0.027569	2.913002
133.148798	2566.286123	1.166101	0.027473	2.918626
133.577955	2577.325798	1.171106	0.027389	2.924262
133.831239	2588.366508	1.176110	0.027339	2.929861
134.317356	2599.327141	1.181115	0.027245	2.935444
134.615339	2610.419496	1.186120	0.027187	2.941054
134.874476	2621.398534	1.191125	0.027135	2.946591
135.377402	2632.406904	1.196129	0.027038	2.952169
135.755584	2643.422587	1.201134	0.026964	2.957720
136.247233	2654.466379	1.206139	0.026870	2.963293
136.675581	2665.448852	1.211143	0.026786	2.968815
136.956175	2676.519725	1.216148	0.026731	2.974348
137.158723	2687.522180	1.221153	0.026690	2.979825
137.611693	2698.512993	1.226158	0.026603	2.985324
138.089194	2709.541246	1.231162	0.026510	2.990835
138.592472	2720.558481	1.236167	0.026413	2.996333
139.015886	2731.586914	1.241172	0.026331	3.001816
139.308831	2742.605868	1.246177	0.026273	3.007264
139.754539	2753.602971	1.251181	0.026187	3.012714
140.254846	2764.626443	1.256186	0.026090	3.018175
140.575378	2775.662338	1.261191	0.026027	3.023606
140.851209	2786.697203	1.266195	0.025973	3.029019
141.188827	2797.669946	1.271200	0.025907	3.034402
141.709021	2808.733416	1.276205	0.025806	3.039846
142.141553	2819.688062	1.281210	0.025723	3.045215
142.620987	2830.788091	1.286214	0.025630	3.050651
142.740674	2841.766685	1.291219	0.025605	3.055967
142.982905	2852.801235	1.296224	0.025557	3.061318
143.246661	2863.776172	1.301228	0.025504	3.066634
144.249243	2874.754006	1.306233	0.025313	3.072048
144.954556	2885.813424	1.311238	0.025178	3.077449
145.505100	2896.839141	1.316243	0.025072	3.082802
145.751974	2907.900262	1.321247	0.025023	3.088119
146.291041	2918.866457	1.326252	0.024919	3.093423
146.595088	2929.904028	1.331257	0.024860	3.098719
147.236705	2940.906840	1.336262	0.024737	3.104037
147.499250	2951.952475	1.341266	0.024685	3.109312
147.808520	2962.972321	1.346271	0.024624	3.114573
148.117817	2973.972124	1.351276	0.024563	3.119816
148.619818	2984.992821	1.356280	0.024466	3.125086
148.907968	2996.030714	1.361285	0.024409	3.130326
149.409530	3007.018565	1.366290	0.024312	3.135562
149.625207	3018.060873	1.371295	0.024269	3.140777
149.842491	3029.067292	1.376299	0.024226	3.145965
150.074943	3040.084321	1.381304	0.024179	3.151152
150.194048	3051.120241	1.386309	0.024154	3.156324
150.525479	3062.102765	1.391314	0.024089	3.161492
150.805049	3073.170467	1.396318	0.024034	3.166684
151.254399	3084.136376	1.401323	0.023947	3.171842
151.427638	3095.186514	1.406328	0.023912	3.176994
151.944029	3106.137025	1.411332	0.023812	3.182138
152.975108	3117.181235	1.416337	0.023616	3.187386
153.628741	3128.199141	1.421342	0.023491	3.192562
153.986307	3139.244569	1.426347	0.023421	3.197703
154.385778	3150.232831	1.431351	0.023343	3.202815
154.703344	3161.329493	1.436356	0.023281	3.207957
154.900505	3172.277690	1.441361	0.023241	3.213007
155.239929	3183.299580	1.446366	0.023175	3.218101
155.621895	3194.324229	1.451370	0.023100	3.223195
156.070001	3205.346197	1.456375	0.023014	3.228287
156.112515	3216.364907	1.461380	0.023003	3.233317
156.510568	3227.383203	1.466384	0.022925	3.238385
156.620927	3238.417658	1.471389	0.022902	3.243415
156.877475	3249.418252	1.476394	0.022851	3.248441
157.352918	3260.399979	1.481399	0.022759	3.253479
157.601417	3271.461766	1.486403	0.022710	3.258515
158.049068	3282.434553	1.491408	0.022623	3.263530
158.570567	3293.494214	1.496413	0.022523	3.268585
158.780096	3304.476486	1.501417	0.022481	3.273558
159.333342	3315.523068	1.506422	0.022374	3.278596
159.395389	3326.514904	1.511427	0.022360	3.283538
159.942411	3337.559570	1.516432	0.022254	3.288559
160.318140	3348.542874	1.521436	0.022181	3.293523
160.757270	3359.590044	1.526441	0.022096	3.298515
160.972140	3370.583923	1.531446	0.022053	3.303448
161.648289	3381.609568	1.536451	0.021923	3.308446
162.049720	3392.600137	1.541455	0.021845	3.313386
162.350007	3403.670038	1.546460	0.021786	3.318341
162.635820	3414.656640	1.551465	0.021730	3.323250
162.873821	3425.714261	1.556469	0.021682	3.328177
163.065516	3436.677284	1.561474	0.021644	3.333048
163.422090	3447.735074	1.566479	0.021574	3.337976
163.543876	3458.719394	1.571484	0.021548	3.342834
163.981032	3469.755558	1.576488	0.021464	3.347747
164.222973	3480.752629	1.581493	0.021416	3.352611
164.502474	3491.794461	1.586498	0.021360	3.357493
165.113622	3502.757735	1.591503	0.021243	3.362374
165.646445	3513.825267	1.596507	0.021140	3.367283
165.846821	3524.809262	1.601512	0.021100	3.372108
166.299409	3535.833526	1.606517	0.021012	3.376975
166.636852	3546.869897	1.611521	0.020946	3.381826
166.968644	3557.893156	1.616526	0.020881	3.386663
167.349767	3568.876976	1.621531	0.020807	3.391482
167.590451	3579.930497	1.626536	0.020759	3.396307
168.014833	3590.904627	1.631540	0.020677	3.401114
168.225353	3601.973201	1.636545	0.020635	3.405928
168.388178	3612.946577	1.641550	0.020601	3.410689
168.886227	3623.976684	1.646555	0.020505	3.415508
169.304470	3634.952980	1.651559	0.020424	3.420287
169.816378	3646.030806	1.656564	0.020325	3.425114
170.010628	3657.037778	1.661569	0.020286	3.429866
170.508120	3668.016795	1.666573	0.020190	3.434636
170.849077	3679.069549	1.671578	0.020123	3.439411
171.204797	3690.085706	1.676583	0.020054	3.444167
171.510636	3701.095401	1.681588	0.019994	3.448906
172.023258	3712.105102	1.686592	0.019895	3.453664
172.230223	3723.129102	1.691597	0.019853	3.458385
172.669285	3734.129290	1.696602	0.019768	3.463117
172.585617	3745.170642	1.701606	0.019781	3.467798
173.004194	3756.160697	1.706611	0.019700	3.472510
173.392117	3767.181881	1.711616	0.019624	3.477225
173.676387	3778.204792	1.716621	0.019568	3.481923
173.967048	3789.231493	1.721625	0.019511	3.486616
174.532728	3800.217896	1.726630	0.019402	3.491318
174.659503	3811.258335	1.731635	0.019375	3.495985
175.414218	3822.243500	1.736640	0.019231	3.500695
175.530910	3833.305609	1.741644	0.019206	3.505358
175.821909	3844.296996	1.746649	0.019149	3.510005
175.965151	3855.319682	1.751654	0.019120	3.514642
176.503345	3866.326289	1.756658	0.019016	3.519311
176.778771	3877.362761	1.761663	0.018961	3.523956
177.112259	3888.381800	1.766668	0.018896	3.528594
177.349700	3899.376558	1.771673	0.018849	3.533205
177.602521	3910.422989	1.776677	0.018799	3.537834
177.862079	3921.383134	1.781682	0.018747	3.542421
178.224045	3932.448085	1.786687	0.018677	3.547057
178.375787	3943.441621	1.791692	0.018645	3.551634
178.648646	3954.483110	1.796696	0.018591	3.556238
178.819186	3965.460312	1.801701	0.018557	3.560799
179.140066	3976.498905	1.806706	0.018494	3.565395
179.374054	3987.504283	1.811710	0.018447	3.569962
180.061826	3998.504173	1.816715	0.018315	3.574572
180.597914	4009.505785	1.821720	0.018212	3.579159
181.113540	4020.583743	1.826725	0.018113	3.583769
181.349997	4031.570214	1.831729	0.018066	3.588305
181.651329	4042.592278	1.836734	0.018006	3.592857
181.879813	4053.596980	1.841739	0.017961	3.597388
182.270389	4064.608319	1.846744	0.017885	3.601933
182.456221	4075.650380	1.851748	0.017847	3.606464
182.950049	4086.623527	1.856753	0.017752	3.610993
183.406942	4097.689765	1.861758	0.017663	3.615551
183.647947	4108.736508	1.866762	0.017615	3.620072
183.870530	4119.746828	1.871767	0.017571	3.624570
184.182470	4130.762675	1.876772	0.017509	3.629074
184.505128	4141.744175	1.881777	0.017446	3.633560
184.764510	4152.832710	1.886781	0.017395	3.638077
185.113556	4163.794071	1.891786	0.017327	3.642547
185.412965	4174.845002	1.896791	0.017268	3.647041
185.549388	4185.833645	1.901795	0.017239	3.651488
185.694200	4196.877792	1.906800	0.017209	3.655953
185.846420	4207.863738	1.911805	0.017178	3.660389
186.252784	4218.883246	1.916810	0.017099	3.664860
186.543782	4229.886234	1.921814	0.017042	3.669307
186.888399	4240.923019	1.926819	0.016974	3.673768
187.108932	4251.924974	1.931824	0.016930	3.678196
187.438323	4262.970411	1.936829	0.016866	3.682648
187.695268	4273.989835	1.941833	0.016815	3.687076
188.108077	4284.952173	1.946838	0.016735	3.691493
188.538941	4295.989139	1.951843	0.016651	3.695935
188.916024	4306.999655	1.956847	0.016578	3.700356
189.000164	4318.045107	1.961852	0.016559	3.704755
189.219835	4329.044828	1.966857	0.016515	3.709145
189.578486	4340.035765	1.971862	0.016445	3.713541
190.073282	4351.078766	1.976866	0.016350	3.717966
190.393374	4362.078887	1.981871	0.016287	3.722350
190.563587	4373.131950	1.986876	0.016252	3.726735
190.853471	4384.096710	1.991881	0.016195	3.731092
191.270117	4395.120956	1.996885	0.016114	3.735480
191.684781	4406.150318	2.001890	0.016034	3.739865
192.040791	4417.168428	2.006895	0.015964	3.744234
192.201167	4428.169898	2.011899	0.015931	3.748572
