Wed Nov 23 17:50:12 2022

Number of Points = 2200
Depth (nm)	Load (µN)	Time (s)	Depth (V)	Load (V)
-1.141485	1.394269	0.000000	-0.038344	1.157630
0.000000	8.313846	0.005005	-0.038560	1.166856
1.497555	17.756767	0.010009	-0.038843	1.179301
2.856107	28.555551	0.015014	-0.039101	1.193213
4.152824	39.631276	0.020019	-0.039347	1.207273
5.245357	50.766304	0.025024	-0.039554	1.221151
6.240597	61.890467	0.030028	-0.039744	1.234817
7.055903	73.020397	0.035033	-0.039900	1.248263
8.095404	84.084786	0.040038	-0.040098	1.261584
8.682486	95.258481	0.045043	-0.040210	1.274701
9.242949	106.361855	0.050047	-0.040318	1.287593
10.044960	117.450434	0.055052	-0.040472	1.300439
10.618121	128.554936	0.060057	-0.040582	1.313085
11.172289	139.631861	0.065061	-0.040689	1.325571
11.776069	150.691505	0.070066	-0.040805	1.337941
12.115257	161.813527	0.075071	-0.040871	1.350161
12.654636	172.848292	0.080076	-0.040975	1.362255
13.165251	183.940488	0.085080	-0.041074	1.374293
13.874216	194.971002	0.090085	-0.041209	1.386237
14.434749	206.079809	0.095090	-0.041317	1.398103
14.774106	217.162835	0.100094	-0.041384	1.409760
15.120649	228.248240	0.105099	-0.041451	1.421327
15.758605	239.256200	0.110104	-0.041574	1.432828
16.320758	250.349576	0.115109	-0.041682	1.444295
16.910981	261.389242	0.120113	-0.041796	1.455629
37.595461	268.489599	0.125118	-0.045679	1.470154
41.211102	282.900905	0.130123	-0.046361	1.485671
41.751669	294.561981	0.135128	-0.046465	1.497272
42.481441	305.614968	0.140132	-0.046605	1.508261
43.340985	316.692204	0.145137	-0.046769	1.519238
44.137837	327.740127	0.150142	-0.046921	1.530086
44.886748	338.827992	0.155146	-0.047064	1.540879
45.927103	349.807136	0.160151	-0.047262	1.551593
46.955250	360.876431	0.165156	-0.047458	1.562312
47.931107	371.933385	0.170161	-0.047644	1.572929
48.770797	383.024643	0.175165	-0.047804	1.583462
49.768409	394.025737	0.180170	-0.047994	1.593893
50.393036	405.166673	0.185175	-0.048114	1.604262
51.363841	416.151064	0.190180	-0.048299	1.614534
52.057595	427.271856	0.195184	-0.048432	1.624775
53.187428	438.195248	0.200189	-0.048646	1.634913
54.188517	449.280393	0.205194	-0.048837	1.645091
55.262479	460.343605	0.210198	-0.049041	1.655210
56.151023	471.391612	0.215203	-0.049211	1.665195
57.111225	482.431822	0.220208	-0.049393	1.675136
58.010023	493.510882	0.225213	-0.049565	1.685033
58.830745	504.554666	0.230217	-0.049722	1.694817
59.821333	515.559610	0.235222	-0.049910	1.704563
60.892320	526.592298	0.240227	-0.050114	1.714301
61.918269	537.652654	0.245232	-0.050309	1.723993
62.808369	548.703120	0.250236	-0.050479	1.733581
63.987832	559.724661	0.255241	-0.050703	1.743178
64.668181	570.818134	0.260246	-0.050833	1.752635
65.636157	581.838917	0.265250	-0.051018	1.762065
66.348691	592.912466	0.270255	-0.051154	1.771414
66.975983	603.984250	0.275260	-0.051275	1.780687
67.578550	614.958523	0.280265	-0.051390	1.789825
68.614189	626.004290	0.285269	-0.051587	1.799098
69.122171	637.102165	0.290274	-0.051685	1.808215
70.157612	648.041506	0.295279	-0.051882	1.817308
71.065192	659.124916	0.300283	-0.052056	1.826434
71.978022	670.149000	0.305288	-0.052230	1.835468
72.739650	681.214295	0.310293	-0.052375	1.844449
73.355979	692.299756	0.315298	-0.052494	1.853362
74.416532	703.221544	0.320302	-0.052695	1.862225
75.484578	714.295367	0.325307	-0.052898	1.871166
76.141707	725.373289	0.330312	-0.053024	1.879956
76.838412	736.405494	0.335317	-0.053158	1.888681
77.754716	747.417638	0.340321	-0.053333	1.897408
78.469029	758.482712	0.345326	-0.053469	1.906082
79.363199	769.463800	0.350331	-0.053640	1.914699
79.934250	780.601172	0.355335	-0.053750	1.923312
80.554561	791.564817	0.360340	-0.053869	1.931767
81.688305	802.577970	0.365345	-0.054084	1.940356
82.353235	813.634464	0.370350	-0.054212	1.948818
83.030563	824.693215	0.375354	-0.054342	1.957247
83.547246	835.737868	0.380359	-0.054441	1.965589
84.240245	846.760851	0.385364	-0.054574	1.973924
85.072833	857.756612	0.390369	-0.054733	1.982239
85.964723	868.790950	0.395373	-0.054903	1.990563
86.484264	879.856134	0.400378	-0.055003	1.998780
87.435101	890.861990	0.405383	-0.055185	2.007028
88.052811	901.925500	0.410387	-0.055303	2.015201
88.705637	912.934736	0.415392	-0.055428	2.023310
89.384968	923.991690	0.420397	-0.055559	2.031427
90.126560	934.992095	0.425402	-0.055700	2.039486
90.813718	946.028725	0.430406	-0.055832	2.047526
91.603515	957.083580	0.435411	-0.055983	2.055572
91.955777	968.119163	0.440416	-0.056052	2.063467
92.548613	979.139293	0.445421	-0.056166	2.071379
93.423292	990.133931	0.450425	-0.056333	2.079310
94.201952	1001.176812	0.455430	-0.056482	2.087222
94.838444	1012.251164	0.460435	-0.056604	2.095091
95.533666	1023.244778	0.465439	-0.056737	2.102888
95.857755	1034.313372	0.470444	-0.056800	2.110621
97.051322	1045.245723	0.475449	-0.057027	2.118436
98.025732	1056.315583	0.480454	-0.057213	2.126264
98.747076	1067.371959	0.485458	-0.057351	2.133995
99.334349	1078.411064	0.490463	-0.057464	2.141656
99.894717	1089.448552	0.495468	-0.057572	2.149281
100.712684	1100.452281	0.500472	-0.057728	2.156916
101.070792	1111.529995	0.505477	-0.057798	2.164468
101.812953	1122.513376	0.510482	-0.057940	2.172018
102.448356	1133.565337	0.515487	-0.058062	2.179563
102.886869	1144.587475	0.520491	-0.058147	2.187018
103.547961	1155.616744	0.525496	-0.058273	2.194502
104.087935	1166.604595	0.530501	-0.058378	2.201905
104.914019	1177.663148	0.535506	-0.058535	2.209394
105.512290	1188.701623	0.540510	-0.058650	2.216794
105.871571	1199.737465	0.545515	-0.058720	2.224114
106.522157	1210.730018	0.550520	-0.058845	2.231446
106.904964	1221.806438	0.555524	-0.058920	2.238750
107.574292	1232.760442	0.560529	-0.059048	2.246013
108.934281	1243.761356	0.565534	-0.059306	2.253431
109.339939	1254.877452	0.570539	-0.059385	2.260694
110.150568	1265.847318	0.575543	-0.059540	2.267926
110.625358	1276.920557	0.580548	-0.059632	2.275129
111.026529	1287.950063	0.585553	-0.059710	2.282266
111.411621	1298.950455	0.590558	-0.059785	2.289358
112.434759	1309.934617	0.595562	-0.059979	2.296553
113.205070	1320.980012	0.600567	-0.060126	2.303711
113.886439	1332.009858	0.605572	-0.060257	2.310817
114.975042	1342.991468	0.610576	-0.060464	2.317957
115.754668	1354.070352	0.615581	-0.060613	2.325070
116.095446	1365.140956	0.620586	-0.060680	2.332066
116.564539	1376.137187	0.625591	-0.060771	2.339021
116.974921	1387.160936	0.630595	-0.060850	2.345960
117.607134	1398.187257	0.635600	-0.060972	2.352925
117.959061	1409.221484	0.640605	-0.061040	2.359817
118.936508	1420.175932	0.645610	-0.061226	2.366767
119.852245	1431.223902	0.650614	-0.061401	2.373741
120.423945	1442.263763	0.655619	-0.061511	2.380621
120.623798	1453.349083	0.660624	-0.061551	2.387433
121.011287	1464.344881	0.665628	-0.061627	2.394209
121.584489	1475.349491	0.670633	-0.061737	2.401008
121.829168	1486.389520	0.675638	-0.061786	2.407743
122.493047	1497.395536	0.680643	-0.061913	2.414523
123.308660	1508.370790	0.685647	-0.062069	2.421294
123.964412	1519.428015	0.690652	-0.062194	2.428064
124.456456	1530.487405	0.695657	-0.062290	2.434784
124.990253	1541.487244	0.700661	-0.062392	2.441459
125.515675	1552.509435	0.705666	-0.062494	2.448126
126.154879	1563.537438	0.710671	-0.062616	2.454801
126.578528	1574.554285	0.715676	-0.062699	2.461409
127.490634	1585.536705	0.720680	-0.062873	2.468073
128.266459	1596.580451	0.725685	-0.063021	2.474729
128.628416	1607.657182	0.730690	-0.063091	2.481306
129.241699	1618.627778	0.735695	-0.063209	2.487853
130.138848	1629.636570	0.740699	-0.063380	2.494457
130.987387	1640.661045	0.745704	-0.063542	2.501044
131.500049	1651.738352	0.750709	-0.063641	2.507581
132.214946	1662.715684	0.755713	-0.063778	2.514081
132.754658	1673.763711	0.760718	-0.063882	2.520572
133.330573	1684.781607	0.765723	-0.063993	2.527035
133.698802	1695.852674	0.770728	-0.064065	2.533474
134.099280	1706.816759	0.775732	-0.064143	2.539840
134.728512	1717.816550	0.780737	-0.064263	2.546254
135.609224	1728.870181	0.785742	-0.064431	2.552728
136.319567	1739.870178	0.790747	-0.064567	2.559123
136.857724	1750.915249	0.795751	-0.064671	2.565497
137.216151	1761.967942	0.800756	-0.064741	2.571826
137.618615	1773.041700	0.805761	-0.064819	2.578160
138.111926	1783.968629	0.810765	-0.064915	2.584411
138.790672	1794.976921	0.815770	-0.065045	2.590726
139.704280	1805.983523	0.820775	-0.065219	2.597067
140.432130	1817.015138	0.825780	-0.065358	2.603373
141.165955	1828.050481	0.830784	-0.065499	2.609667
141.675848	1839.078891	0.835789	-0.065597	2.615902
142.293786	1850.107447	0.840794	-0.065716	2.622140
142.645109	1861.145160	0.845799	-0.065784	2.628322
142.880871	1872.185938	0.850803	-0.065831	2.634471
143.327267	1883.164324	0.855808	-0.065918	2.640608
144.011801	1894.179477	0.860813	-0.066049	2.646792
144.538343	1905.219960	0.865817	-0.066150	2.652948
145.369966	1916.198588	0.870822	-0.066309	2.659109
146.143691	1927.218696	0.875827	-0.066457	2.665267
146.794885	1938.281761	0.880832	-0.066582	2.671414
147.455935	1949.264663	0.885836	-0.066709	2.677504
148.088764	1960.316323	0.890841	-0.066830	2.683613
148.880557	1971.297072	0.895846	-0.066982	2.689697
149.504201	1982.355019	0.900850	-0.067101	2.695779
149.887309	1993.400951	0.905855	-0.067176	2.701801
150.342223	2004.405847	0.910860	-0.067264	2.707799
150.621751	2015.436758	0.915865	-0.067319	2.713768
151.122370	2026.440337	0.920869	-0.067416	2.719746
151.695540	2037.449499	0.925874	-0.067526	2.725726
152.186642	2048.474154	0.930879	-0.067621	2.731688
152.569527	2059.491655	0.935884	-0.067696	2.737614
153.005776	2070.495618	0.940888	-0.067780	2.743529
153.621134	2081.489085	0.945893	-0.067898	2.749456
154.057101	2092.549525	0.950898	-0.067983	2.755375
154.462804	2103.553108	0.955902	-0.068062	2.761247
154.933023	2114.602648	0.960907	-0.068153	2.767141
155.897790	2125.533485	0.965912	-0.068337	2.773040
156.379718	2136.614727	0.970917	-0.068430	2.778927
156.980911	2147.625600	0.975921	-0.068545	2.784784
157.417797	2158.659382	0.980926	-0.068630	2.790614
158.042613	2169.656614	0.985931	-0.068750	2.796442
158.412584	2180.747617	0.990936	-0.068822	2.802266
158.613714	2191.712035	0.995940	-0.068863	2.807986
158.948898	2202.766218	1.000945	-0.068928	2.813761
159.401114	2213.726844	1.005950	-0.069016	2.819495
160.279451	2224.728351	1.010954	-0.069183	2.825306
161.340135	2235.767135	1.015959	-0.069385	2.831153
161.852037	2246.809424	1.020964	-0.069484	2.836902
162.591143	2257.802865	1.025969	-0.069625	2.842651
163.006737	2268.856131	1.030973	-0.069706	2.848367
163.537464	2279.857476	1.035978	-0.069808	2.854064
164.050201	2290.897403	1.040983	-0.069907	2.859765
164.438202	2301.899279	1.045988	-0.069983	2.865417
164.864827	2312.966945	1.050992	-0.070065	2.871096
165.045294	2323.947280	1.055997	-0.070102	2.876682
165.830292	2334.934754	1.061002	-0.070252	2.882354
166.224450	2345.999315	1.066006	-0.070329	2.887994
166.357705	2357.058910	1.071011	-0.070357	2.893579
166.625626	2368.020505	1.076016	-0.070410	2.899125
167.002725	2379.049268	1.081021	-0.070483	2.904711
167.548660	2390.050732	1.086025	-0.070588	2.910298
168.037984	2401.083083	1.091030	-0.070683	2.915881
168.405269	2412.101548	1.096035	-0.070754	2.921428
168.775364	2423.118540	1.101039	-0.070827	2.926964
169.255720	2434.130886	1.106044	-0.070919	2.932504
169.501107	2445.166539	1.111049	-0.070968	2.938009
169.952170	2456.154510	1.116054	-0.071056	2.943512
170.469869	2467.197185	1.121058	-0.071155	2.949040
170.881827	2478.208826	1.126063	-0.071235	2.954527
171.112038	2489.259500	1.131068	-0.071281	2.959997
171.801126	2500.192932	1.136073	-0.071413	2.965466
172.580503	2511.263588	1.141077	-0.071562	2.971006
172.914790	2522.307224	1.146082	-0.071628	2.976456
173.236231	2533.314542	1.151087	-0.071691	2.981877
173.724554	2544.297819	1.156091	-0.071785	2.987300
174.272716	2555.326024	1.161096	-0.071891	2.992745
174.752418	2566.360733	1.166101	-0.071984	2.998172
175.005510	2577.389176	1.171106	-0.072034	3.003553
175.198938	2588.418101	1.176110	-0.072073	3.008917
175.564477	2599.419917	1.181115	-0.072144	3.014282
176.010532	2610.420251	1.186120	-0.072231	3.019649
176.601061	2621.434492	1.191125	-0.072344	3.025033
177.089688	2632.463659	1.196129	-0.072438	3.030401
177.734803	2643.464942	1.201134	-0.072562	3.035767
178.648646	2654.470315	1.206139	-0.072736	3.041165
179.191065	2665.515915	1.211143	-0.072841	3.046519
179.423684	2676.554437	1.216148	-0.072887	3.051816
179.719852	2687.564631	1.221153	-0.072946	3.057099
179.862795	2698.571962	1.226158	-0.072975	3.062350
180.252403	2709.616740	1.231162	-0.073051	3.067645
180.677764	2720.597858	1.236167	-0.073134	3.072905
181.132950	2731.633048	1.241172	-0.073222	3.078186
181.612706	2742.626793	1.246177	-0.073314	3.083442
182.092632	2753.688842	1.251181	-0.073407	3.088720
182.736943	2764.649406	1.256186	-0.073531	3.093965
182.916430	2775.722405	1.261191	-0.073567	3.099189
183.538485	2786.684577	1.266195	-0.073687	3.104413
183.922713	2797.767260	1.271200	-0.073762	3.109652
184.155138	2808.755830	1.276205	-0.073808	3.114818
184.369868	2819.796227	1.281210	-0.073851	3.119996
184.849098	2830.755436	1.286214	-0.073944	3.125164
185.465712	2841.822087	1.291219	-0.074062	3.130392
185.971638	2852.802956	1.296224	-0.074160	3.135557
186.429677	2863.823222	1.301228	-0.074248	3.140724
187.401160	2874.806628	1.306233	-0.074433	3.145936
187.919144	2885.889602	1.311238	-0.074533	3.151123
188.285457	2896.876347	1.316243	-0.074605	3.156237
188.772970	2907.902325	1.321247	-0.074699	3.161376
189.385768	2918.905525	1.326252	-0.074817	3.166514
189.933081	2929.946287	1.331257	-0.074922	3.171652
190.338251	2940.939717	1.336262	-0.075001	3.176740
191.064420	2951.945485	1.341266	-0.075140	3.181869
191.720536	2962.982558	1.346271	-0.075266	3.186994
192.217186	2974.019155	1.351276	-0.075362	3.192089
192.657277	2985.027786	1.356280	-0.075447	3.197156
192.998519	2996.060913	1.361285	-0.075514	3.202213
193.441338	3007.050805	1.366290	-0.075599	3.207256
193.879007	3018.082707	1.371295	-0.075684	3.212309
194.438175	3029.083585	1.376299	-0.075792	3.217355
194.976031	3040.119525	1.381304	-0.075896	3.222407
195.293558	3051.137598	1.386309	-0.075958	3.227414
195.533513	3062.153053	1.391314	-0.076006	3.232402
195.886736	3073.169933	1.396318	-0.076075	3.237398
196.255170	3084.184507	1.401323	-0.076146	3.242386
196.645611	3095.208718	1.406328	-0.076222	3.247374
197.028318	3106.223151	1.411332	-0.076297	3.252349
197.486547	3117.217845	1.416337	-0.076386	3.257317
197.895745	3128.252209	1.421342	-0.076465	3.262289
198.216596	3139.273595	1.426347	-0.076528	3.267236
198.657331	3150.286259	1.431351	-0.076614	3.272187
199.122406	3161.293627	1.436356	-0.076704	3.277131
199.603117	3172.332675	1.441361	-0.076797	3.282084
199.953668	3183.344680	1.446366	-0.076865	3.287000
200.276486	3194.352409	1.451370	-0.076928	3.291904
200.691027	3205.357224	1.456375	-0.077009	3.296810
201.152130	3216.380548	1.461380	-0.077098	3.301724
201.797210	3227.388548	1.466384	-0.077222	3.306645
202.173411	3238.446968	1.471389	-0.077295	3.311549
202.321769	3249.449028	1.476394	-0.077326	3.316391
202.593158	3260.461842	1.481399	-0.077379	3.321247
203.194798	3271.448639	1.486403	-0.077495	3.326125
203.705429	3282.489254	1.491408	-0.077594	3.331008
204.136825	3293.487172	1.496413	-0.077677	3.335855
204.687597	3304.526804	1.501417	-0.077783	3.340728
205.013124	3315.530639	1.506422	-0.077847	3.345550
205.298410	3326.572040	1.511427	-0.077903	3.350377
205.584204	3337.563183	1.516432	-0.077960	3.355175
206.173205	3348.593002	1.521436	-0.078073	3.360020
206.590747	3359.608479	1.526441	-0.078154	3.364831
206.966091	3370.646852	1.531446	-0.078227	3.369639
207.131666	3381.643189	1.536451	-0.078261	3.374398
207.395924	3392.661814	1.541455	-0.078313	3.379170
207.906198	3403.638641	1.546460	-0.078412	3.383948
208.578944	3414.681647	1.551465	-0.078541	3.388767
208.885846	3425.693985	1.556469	-0.078601	3.393521
209.298589	3436.721149	1.561474	-0.078681	3.398288
209.736078	3447.711993	1.566479	-0.078766	3.403036
210.159823	3458.774409	1.571484	-0.078848	3.407806
210.520285	3469.742661	1.576488	-0.078919	3.412521
211.050826	3480.766771	1.581493	-0.079021	3.417274
211.529346	3491.790964	1.586498	-0.079113	3.422014
211.715269	3502.852757	1.591503	-0.079151	3.426729
212.096656	3513.823711	1.596507	-0.079225	3.431421
212.534380	3524.852125	1.601512	-0.079310	3.436138
213.094682	3535.840938	1.606517	-0.079418	3.440846
213.403401	3546.895243	1.611521	-0.079479	3.445546
213.745515	3557.897930	1.616526	-0.079546	3.450222
213.942596	3568.936350	1.621531	-0.079585	3.454889
214.557405	3579.893255	1.626536	-0.079703	3.459564
215.014198	3590.971359	1.631540	-0.079792	3.464265
215.639663	3601.949487	1.636545	-0.079912	3.468937
216.135988	3612.976046	1.641550	-0.080008	3.473608
216.658823	3623.968819	1.646555	-0.080109	3.478262
216.928722	3635.027045	1.651559	-0.080162	3.482908
217.387056	3646.021243	1.656564	-0.080251	3.487542
217.685193	3657.056061	1.661569	-0.080309	3.492169
218.143247	3668.045802	1.666573	-0.080398	3.496789
218.475377	3679.089205	1.671578	-0.080463	3.501411
218.786097	3690.103582	1.676583	-0.080524	3.506012
218.956444	3701.129246	1.681588	-0.080559	3.510596
219.493310	3712.108072	1.686592	-0.080662	3.515196
220.026879	3723.142011	1.691597	-0.080765	3.519811
220.381190	3734.162069	1.696602	-0.080834	3.524395
220.642483	3745.220378	1.701606	-0.080886	3.528979
220.842824	3756.192007	1.706611	-0.080926	3.533514
221.418188	3767.193322	1.711616	-0.081037	3.538097
221.574568	3778.223104	1.716621	-0.081069	3.542639
221.868546	3789.257676	1.721625	-0.081127	3.547192
222.099473	3800.238873	1.726630	-0.081173	3.551711
222.656920	3811.263703	1.731635	-0.081281	3.556278
223.079692	3822.275747	1.736640	-0.081363	3.560818
223.610360	3833.301735	1.741644	-0.081465	3.565370
224.392176	3844.277500	1.746649	-0.081614	3.569924
225.118535	3855.316609	1.751654	-0.081753	3.574490
225.418940	3866.346348	1.756658	-0.081812	3.579001
225.884793	3877.375488	1.761663	-0.081903	3.583524
226.478368	3888.367267	1.766668	-0.082017	3.588040
227.315246	3899.362840	1.771673	-0.082176	3.592577
227.581140	3910.421805	1.776677	-0.082229	3.597073
227.661708	3921.435596	1.781682	-0.082247	3.601526
227.951071	3932.460496	1.786687	-0.082304	3.605999
228.182905	3943.482748	1.791692	-0.082350	3.610460
228.344005	3954.462931	1.796696	-0.082383	3.614891
228.655536	3965.493266	1.801701	-0.082444	3.619352
228.986132	3976.516883	1.806706	-0.082509	3.623807
229.451747	3987.529709	1.811710	-0.082599	3.628267
229.733061	3998.546435	1.816715	-0.082655	3.632703
230.332453	4009.543301	1.821720	-0.082770	3.637159
230.905061	4020.544784	1.826725	-0.082880	3.641608
231.293887	4031.610802	1.831729	-0.082956	3.646059
231.670365	4042.578548	1.836734	-0.083029	3.650463
231.859326	4053.642753	1.841739	-0.083067	3.654881
232.184702	4064.603805	1.846744	-0.083131	3.659267
232.440358	4075.678433	1.851748	-0.083182	3.663685
232.950335	4086.663234	1.856753	-0.083280	3.668089
233.425597	4097.713378	1.861758	-0.083372	3.672509
233.911070	4108.748512	1.866762	-0.083466	3.676919
234.253231	4119.755439	1.871767	-0.083533	3.681298
234.622049	4130.775190	1.876772	-0.083605	3.685680
234.896178	4141.799626	1.881777	-0.083659	3.690048
235.259720	4152.798304	1.886781	-0.083730	3.694410
235.578714	4163.827404	1.891786	-0.083792	3.698774
235.777994	4174.834682	1.896791	-0.083833	3.703113
236.239934	4185.893219	1.901795	-0.083922	3.707492
236.571301	4196.844886	1.906800	-0.083987	3.711812
236.980333	4207.887074	1.911805	-0.084066	3.716170
237.161675	4218.894002	1.916810	-0.084103	3.720486
237.535445	4229.942875	1.921814	-0.084176	3.724832
237.798844	4240.903424	1.926819	-0.084228	3.729128
238.232956	4251.970321	1.931824	-0.084312	3.733477
238.589411	4262.941801	1.936829	-0.084382	3.737777
239.050595	4273.982294	1.941833	-0.084471	3.742108
239.394141	4285.003229	1.946838	-0.084538	3.746415
239.599529	4295.991784	1.951843	-0.084580	3.750691
239.799366	4307.049388	1.956847	-0.084620	3.754988
240.106561	4318.036678	1.961852	-0.084680	3.759264
240.503787	4329.041337	1.966857	-0.084757	3.763550
