Wed Nov 23 19:06:18 2022

Number of Points = 2200
Depth (nm)	Load (µN)	Time (s)	Depth (V)	Load (V)
-7.543728	1.820273	0.000000	-0.046544	1.178238
0.000000	7.086705	0.005005	-0.047960	1.188146
8.550691	16.305853	0.010009	-0.049567	1.203219
13.920948	27.795097	0.015014	-0.050578	1.219423
16.804648	39.417958	0.020019	-0.051122	1.234495
18.485052	50.853375	0.025024	-0.051440	1.248650
19.747566	62.078643	0.030028	-0.051680	1.262226
21.400405	73.047047	0.035033	-0.051992	1.275525
24.814236	83.886225	0.040038	-0.052636	1.289267
26.236540	95.301179	0.045043	-0.052905	1.302694
28.420099	106.319697	0.050047	-0.053318	1.315850
30.149099	117.414239	0.055052	-0.053645	1.328777
31.440718	128.629706	0.060057	-0.053890	1.341537
32.630647	139.698474	0.065061	-0.054116	1.353978
34.258008	150.725851	0.070066	-0.054424	1.366430
35.758595	161.821613	0.075071	-0.054709	1.378793
36.948837	172.948400	0.080076	-0.054935	1.390959
38.406517	183.974003	0.085080	-0.055211	1.403015
39.691899	195.069273	0.090085	-0.055455	1.414975
41.139799	206.137802	0.095090	-0.055729	1.426866
42.498396	217.188678	0.100094	-0.055987	1.438607
43.841224	228.270117	0.105099	-0.056242	1.450278
45.307840	239.340141	0.110104	-0.056520	1.461888
46.320765	250.459504	0.115109	-0.056712	1.473292
47.495492	261.483769	0.120113	-0.056935	1.484573
48.707540	272.575417	0.125118	-0.057166	1.495846
49.482332	283.672966	0.130123	-0.057314	1.506888
50.797322	294.672000	0.135128	-0.057563	1.517941
51.884544	305.754116	0.140132	-0.057770	1.528914
52.692684	316.876490	0.145137	-0.057924	1.539753
53.692929	327.872653	0.150142	-0.058115	1.550461
54.872443	338.913573	0.155146	-0.058339	1.561196
56.024665	349.970959	0.160151	-0.058558	1.571864
57.012492	361.058862	0.165156	-0.058746	1.582433
57.911011	372.092904	0.170161	-0.058917	1.592854
59.164801	383.133055	0.175165	-0.059155	1.603327
60.053071	394.211036	0.180170	-0.059325	1.613647
61.053432	405.276647	0.185175	-0.059515	1.623927
61.898212	416.332209	0.190180	-0.059676	1.634082
62.807188	427.362084	0.195184	-0.059850	1.644173
63.779973	438.402322	0.200189	-0.060035	1.654230
64.604982	449.487599	0.205194	-0.060192	1.664219
65.456981	460.510305	0.210198	-0.060355	1.674103
66.532408	471.527021	0.215203	-0.060560	1.683991
67.611383	482.574482	0.220208	-0.060765	1.693848
68.468717	493.671996	0.225213	-0.060928	1.703624
69.148919	504.719002	0.230217	-0.061059	1.713247
70.251990	515.690664	0.235222	-0.061268	1.722879
71.057988	526.800827	0.240227	-0.061422	1.732485
72.234085	537.752137	0.245232	-0.061646	1.742014
73.218960	548.851100	0.250236	-0.061833	1.751557
74.331401	559.872779	0.255241	-0.062045	1.761021
75.051681	570.986712	0.260246	-0.062183	1.770396
75.768387	582.011597	0.265250	-0.062320	1.779648
76.402293	593.055524	0.270255	-0.062442	1.788844
77.226157	604.062739	0.275260	-0.062599	1.798016
78.012058	615.135125	0.280265	-0.062749	1.807184
78.959567	626.140561	0.285269	-0.062930	1.816296
79.721969	637.190849	0.290274	-0.063075	1.825347
80.415911	648.248422	0.295279	-0.063208	1.834339
81.160866	659.280684	0.300283	-0.063351	1.843281
82.107455	670.274698	0.305288	-0.063531	1.852205
83.005045	681.343044	0.310293	-0.063702	1.861130
84.062358	692.355248	0.315298	-0.063904	1.870013
84.721372	703.423335	0.320302	-0.064030	1.878788
85.321339	714.496030	0.325307	-0.064145	1.887510
86.106968	725.498250	0.330312	-0.064295	1.896187
86.912451	736.506743	0.335317	-0.064449	1.904835
87.753744	747.584191	0.340321	-0.064610	1.913504
88.545408	758.584228	0.345326	-0.064761	1.922063
89.190903	769.651936	0.350331	-0.064885	1.930596
90.086182	780.658846	0.355335	-0.065056	1.939111
91.083958	791.654115	0.360340	-0.065246	1.947606
91.726519	802.758514	0.365345	-0.065369	1.956053
92.314961	813.778690	0.370350	-0.065482	1.964388
93.045121	824.813488	0.375354	-0.065622	1.972733
93.899149	835.815208	0.380359	-0.065785	1.981051
94.693452	846.844136	0.385364	-0.065937	1.989338
95.572226	857.907931	0.390369	-0.066104	1.997637
96.375274	868.909207	0.395373	-0.066258	2.005837
97.036214	879.995169	0.400378	-0.066384	2.014030
97.717491	890.996378	0.405383	-0.066515	2.022132
98.250207	902.066172	0.410387	-0.066618	2.030215
99.167732	913.020021	0.415392	-0.066793	2.038277
99.920812	924.101045	0.420397	-0.066937	2.046357
100.899185	935.083540	0.425402	-0.067123	2.054390
101.714687	946.123256	0.430406	-0.067279	2.062393
102.564661	957.183692	0.435411	-0.067441	2.070387
103.348459	968.213917	0.440416	-0.067591	2.078312
103.960047	979.247342	0.445421	-0.067708	2.086169
104.588477	990.303882	0.450425	-0.067829	2.094016
105.238760	1001.308636	0.455430	-0.067954	2.101803
105.856201	1012.319537	0.460435	-0.068072	2.109557
106.747895	1023.364120	0.465439	-0.068242	2.117370
107.243914	1034.425910	0.470444	-0.068338	2.125073
107.881367	1045.440993	0.475449	-0.068460	2.132750
108.576648	1056.468854	0.480454	-0.068594	2.140420
109.122389	1067.499012	0.485458	-0.068699	2.148031
109.690682	1078.539925	0.490463	-0.068808	2.155626
110.382080	1089.534881	0.495468	-0.068941	2.163192
111.090688	1100.589624	0.500472	-0.069076	2.170775
111.818128	1111.597084	0.505477	-0.069215	2.178304
112.348522	1122.653853	0.510482	-0.069318	2.185795
113.184911	1133.625713	0.515487	-0.069477	2.193273
113.787005	1144.702846	0.520491	-0.069593	2.200742
114.610294	1155.692402	0.525496	-0.069750	2.208178
115.354074	1166.748586	0.530501	-0.069893	2.215614
115.786044	1177.784029	0.535506	-0.069976	2.222943
116.675620	1188.759386	0.540510	-0.070146	2.230308
117.333002	1199.822287	0.545515	-0.070272	2.237656
117.701588	1210.899425	0.550520	-0.070344	2.244925
118.569483	1221.834687	0.555524	-0.070510	2.252187
119.090406	1232.956168	0.560529	-0.070610	2.259471
119.755057	1243.889336	0.565534	-0.070737	2.266641
120.313088	1254.983373	0.570539	-0.070845	2.273869
120.801878	1265.986924	0.575543	-0.070939	2.281001
121.352388	1277.008851	0.580548	-0.071045	2.288135
122.030178	1288.032102	0.585553	-0.071175	2.295274
122.596845	1299.064002	0.590558	-0.071284	2.302374
123.031965	1310.096275	0.595562	-0.071369	2.309424
123.538958	1321.115744	0.600567	-0.071467	2.316459
124.313393	1332.109752	0.605572	-0.071615	2.323512
124.864710	1343.170347	0.610576	-0.071721	2.330539
125.313946	1354.202431	0.615581	-0.071808	2.337507
125.907611	1365.205270	0.620586	-0.071922	2.344464
126.751470	1376.210018	0.625591	-0.072083	2.351453
127.353331	1387.246253	0.630595	-0.072199	2.358392
128.033576	1398.261643	0.635600	-0.072329	2.365313
128.729190	1409.312941	0.640605	-0.072462	2.372238
129.397966	1420.330621	0.645610	-0.072591	2.379117
129.853892	1431.356784	0.650614	-0.072679	2.385939
130.188222	1442.407429	0.655619	-0.072744	2.392732
130.761211	1453.396388	0.660624	-0.072855	2.399515
131.590847	1464.383444	0.665628	-0.073013	2.406329
132.098224	1475.487112	0.670633	-0.073111	2.413129
132.710734	1486.451790	0.675638	-0.073229	2.419848
133.236408	1497.500008	0.680643	-0.073330	2.426581
133.901199	1508.523752	0.685647	-0.073457	2.433308
134.267177	1519.547530	0.690652	-0.073529	2.439957
134.961226	1530.562831	0.695657	-0.073662	2.446648
135.358555	1541.607890	0.700661	-0.073739	2.453279
135.826857	1552.594008	0.705666	-0.073830	2.459872
136.290838	1563.662281	0.710671	-0.073919	2.466495
137.097058	1574.624133	0.715676	-0.074073	2.473102
137.658571	1585.680871	0.720680	-0.074182	2.479701
138.172148	1596.715388	0.725685	-0.074281	2.486260
138.578685	1607.756725	0.730690	-0.074360	2.492785
139.166563	1618.730678	0.735695	-0.074473	2.499288
139.750714	1629.771593	0.740699	-0.074585	2.505812
140.428268	1640.777635	0.745704	-0.074715	2.512316
140.908634	1651.821232	0.750709	-0.074808	2.518788
141.464044	1662.852594	0.755713	-0.074915	2.525251
141.601233	1673.906666	0.760718	-0.074943	2.531632
141.972996	1684.881010	0.765723	-0.075016	2.537994
142.490531	1695.910213	0.770728	-0.075115	2.544399
143.108316	1706.916759	0.775732	-0.075234	2.550793
143.599872	1717.951759	0.780737	-0.075329	2.557164
144.214526	1728.967146	0.785742	-0.075447	2.563530
144.657338	1740.001380	0.790747	-0.075533	2.569860
145.203619	1751.076166	0.795751	-0.075638	2.576216
145.515871	1762.052458	0.800756	-0.075700	2.582458
146.431699	1773.012003	0.805761	-0.075874	2.588784
146.928500	1784.071825	0.810765	-0.075970	2.595075
147.400190	1795.110208	0.815770	-0.076061	2.601335
147.895643	1806.127630	0.820775	-0.076157	2.607572
148.684605	1817.106233	0.825780	-0.076308	2.613824
149.044612	1828.163415	0.830784	-0.076378	2.620029
149.542060	1839.186314	0.835789	-0.076474	2.626225
149.859754	1850.235164	0.840794	-0.076536	2.632388
150.335825	1861.224557	0.845799	-0.076628	2.638532
150.681815	1872.265053	0.850803	-0.076696	2.644667
151.210157	1883.260673	0.855808	-0.076798	2.650795
151.654370	1894.297989	0.860813	-0.076884	2.656916
152.213718	1905.300846	0.865817	-0.076992	2.663025
152.591009	1916.340892	0.870822	-0.077065	2.669108
153.006099	1927.343523	0.875827	-0.077146	2.675164
153.466337	1938.391347	0.880832	-0.077235	2.681237
154.078046	1949.372558	0.885836	-0.077352	2.687287
154.465120	1960.446691	0.890841	-0.077428	2.693335
154.776921	1971.430186	0.895846	-0.077489	2.699308
155.377071	1982.423767	0.900850	-0.077604	2.705321
155.841006	1993.487761	0.905855	-0.077694	2.711336
156.176157	2004.507645	0.910860	-0.077760	2.717292
156.626280	2015.517796	0.915865	-0.077847	2.723250
157.053429	2026.542835	0.920869	-0.077930	2.729198
157.501648	2037.557663	0.925874	-0.078017	2.735131
157.714015	2048.576604	0.930879	-0.078059	2.741014
158.230868	2059.571451	0.935884	-0.078159	2.746922
158.756823	2070.583637	0.940888	-0.078260	2.752828
159.280431	2081.581749	0.945893	-0.078361	2.758713
159.856761	2092.619039	0.950898	-0.078472	2.764615
160.253810	2103.679374	0.955902	-0.078550	2.770487
160.550552	2114.667847	0.960907	-0.078608	2.776292
160.944930	2125.703713	0.965912	-0.078685	2.782126
161.270844	2136.709636	0.970917	-0.078749	2.787921
161.723632	2147.729475	0.975921	-0.078836	2.793731
162.234420	2158.730158	0.980926	-0.078935	2.799528
162.998266	2169.749975	0.985931	-0.079081	2.805364
163.130805	2180.820662	0.990936	-0.079108	2.811113
163.708745	2191.800577	0.995940	-0.079220	2.816875
163.987846	2202.839649	1.000945	-0.079275	2.822607
164.671117	2213.807675	1.005950	-0.079406	2.828355
164.885242	2224.893053	1.010954	-0.079449	2.834078
165.229022	2235.894614	1.015959	-0.079516	2.839766
165.542747	2246.897945	1.020964	-0.079577	2.845439
166.087633	2257.926008	1.025969	-0.079682	2.851149
166.428625	2268.952340	1.030973	-0.079749	2.856815
167.046088	2279.946202	1.035978	-0.079868	2.862497
167.292357	2290.984088	1.040983	-0.079917	2.868131
167.788338	2301.995215	1.045988	-0.080012	2.873780
168.289389	2313.006005	1.050992	-0.080109	2.879418
168.967922	2324.018765	1.055997	-0.080239	2.885073
169.274018	2335.090137	1.061002	-0.080299	2.890689
169.825567	2346.072956	1.066006	-0.080406	2.896288
169.944807	2357.114789	1.071011	-0.080431	2.901839
170.349488	2368.104639	1.076016	-0.080509	2.907396
170.588583	2379.140755	1.081021	-0.080557	2.912941
171.069852	2390.131392	1.086025	-0.080650	2.918490
171.384184	2401.166601	1.091030	-0.080712	2.924025
172.014199	2412.184508	1.096035	-0.080833	2.929588
172.203433	2423.219676	1.101039	-0.080871	2.935082
172.702058	2434.217351	1.106044	-0.080967	2.940595
173.158098	2445.235202	1.111049	-0.081055	2.946100
173.648503	2456.256177	1.116054	-0.081150	2.951602
174.030490	2467.264949	1.121058	-0.081225	2.957071
174.708740	2478.275117	1.126063	-0.081355	2.962574
175.013099	2489.342784	1.131068	-0.081414	2.968040
175.306920	2500.337867	1.136073	-0.081472	2.973459
175.533570	2511.368448	1.141077	-0.081518	2.978875
176.054006	2522.347012	1.146082	-0.081618	2.984300
176.584127	2533.394000	1.151087	-0.081720	2.989748
176.916261	2544.414960	1.156091	-0.081785	2.995146
177.267026	2555.422205	1.161096	-0.081854	3.000529
177.684948	2566.445640	1.166101	-0.081935	3.005921
178.107637	2577.480788	1.171106	-0.082017	3.011309
178.559483	2588.446389	1.176110	-0.082104	3.016658
179.147899	2599.486641	1.181115	-0.082218	3.022052
179.486315	2610.534061	1.186120	-0.082284	3.027405
179.799192	2621.529487	1.191125	-0.082345	3.032720
180.116891	2632.555521	1.196129	-0.082408	3.038040
180.392098	2643.570706	1.201134	-0.082462	3.043340
180.795107	2654.606054	1.206139	-0.082540	3.048658
181.102389	2665.606179	1.211143	-0.082601	3.053937
181.483152	2676.616356	1.216148	-0.082675	3.059222
182.071653	2687.631156	1.221153	-0.082788	3.064528
182.724234	2698.628228	1.226158	-0.082913	3.069826
183.102037	2709.694615	1.231162	-0.082987	3.075110
183.704517	2720.676253	1.236167	-0.083103	3.080375
184.050174	2731.712743	1.241172	-0.083170	3.085621
184.478472	2742.733367	1.246177	-0.083253	3.090862
184.807783	2753.746433	1.251181	-0.083318	3.096077
185.163320	2764.742691	1.256186	-0.083387	3.101279
185.459470	2775.785960	1.261191	-0.083445	3.106486
185.911128	2786.795666	1.266195	-0.083533	3.111690
186.179005	2797.830015	1.271200	-0.083586	3.116871
186.651960	2808.816122	1.276205	-0.083677	3.122049
187.041388	2819.859581	1.281210	-0.083753	3.127234
187.571720	2830.864352	1.286214	-0.083855	3.132411
187.788343	2841.889278	1.291219	-0.083899	3.137546
188.178373	2852.909517	1.296224	-0.083975	3.142695
188.334984	2863.941948	1.301228	-0.084007	3.147809
188.693628	2874.948463	1.306233	-0.084077	3.152929
188.999641	2885.964821	1.311238	-0.084137	3.158039
189.270885	2896.968658	1.316243	-0.084191	3.163130
189.486202	2907.997920	1.321247	-0.084234	3.168217
189.752181	2919.012672	1.326252	-0.084286	3.173296
190.086281	2930.020789	1.331257	-0.084352	3.178373
190.612555	2941.028087	1.336262	-0.084453	3.183466
191.074111	2952.062716	1.341266	-0.084543	3.188555
191.786605	2963.048315	1.346271	-0.084679	3.193647
192.004411	2974.122323	1.351276	-0.084723	3.198706
192.341589	2985.123108	1.356280	-0.084789	3.203739
192.590603	2996.148354	1.361285	-0.084838	3.208763
192.890935	3007.135566	1.366290	-0.084897	3.213769
193.108850	3018.166036	1.371295	-0.084941	3.218776
193.551886	3029.169234	1.376299	-0.085027	3.223792
193.873408	3040.213152	1.381304	-0.085090	3.228803
194.485675	3051.184801	1.386309	-0.085207	3.233811
194.906970	3062.233054	1.391314	-0.085289	3.238821
195.164332	3073.236998	1.396318	-0.085340	3.243782
195.340032	3084.303094	1.401323	-0.085376	3.248753
195.923336	3095.237537	1.406328	-0.085488	3.253710
196.245654	3106.308678	1.411332	-0.085551	3.258686
196.761235	3117.301891	1.416337	-0.085651	3.263645
197.167318	3128.333028	1.421342	-0.085730	3.268599
197.432510	3139.352451	1.426347	-0.085782	3.273522
197.699075	3150.356611	1.431351	-0.085835	3.278432
198.308905	3161.362559	1.436356	-0.085952	3.283377
198.610080	3172.420344	1.441361	-0.086011	3.288300
198.917057	3183.414729	1.446366	-0.086072	3.293188
199.319216	3194.424313	1.451370	-0.086150	3.298087
199.791838	3205.426452	1.456375	-0.086241	3.302984
200.075174	3216.487558	1.461380	-0.086297	3.307876
200.444553	3227.476161	1.466384	-0.086369	3.312740
200.889659	3238.486304	1.471389	-0.086455	3.317615
201.314068	3249.498912	1.476394	-0.086538	3.322482
201.552209	3260.568406	1.481399	-0.086585	3.327343
202.084226	3271.517844	1.486403	-0.086688	3.332181
202.491883	3282.577554	1.491408	-0.086767	3.337044
202.985657	3293.547656	1.496413	-0.086862	3.341872
203.595118	3304.596677	1.501417	-0.086979	3.346741
203.954121	3315.607150	1.506422	-0.087049	3.351556
204.096722	3326.657590	1.511427	-0.087079	3.356355
204.460954	3337.645350	1.516432	-0.087150	3.361147
204.767409	3348.680501	1.521436	-0.087210	3.365945
204.915621	3359.694664	1.526441	-0.087241	3.370708
205.304912	3370.684179	1.531446	-0.087317	3.375483
205.666245	3381.701788	1.536451	-0.087387	3.380259
206.140553	3392.726461	1.541455	-0.087479	3.385046
206.707729	3403.747212	1.546460	-0.087588	3.389835
206.883114	3414.776078	1.551465	-0.087624	3.394573
207.324909	3425.773660	1.556469	-0.087709	3.399324
207.631219	3436.801174	1.561474	-0.087769	3.404064
207.973781	3447.819650	1.566479	-0.087836	3.408799
208.051442	3458.829380	1.571484	-0.087854	3.413491
208.542364	3469.832792	1.576488	-0.087949	3.418223
208.744052	3480.866966	1.581493	-0.087989	3.422928
209.103459	3491.886292	1.586498	-0.088059	3.427638
209.293169	3502.895501	1.591503	-0.088098	3.432318
209.657201	3513.917049	1.596507	-0.088169	3.437016
210.070343	3524.917569	1.601512	-0.088249	3.441705
210.424114	3535.952015	1.606517	-0.088318	3.446395
210.803346	3546.959944	1.611521	-0.088392	3.451070
211.151330	3557.967188	1.616526	-0.088460	3.455735
211.764129	3568.969251	1.621531	-0.088578	3.460422
212.247837	3580.002734	1.626536	-0.088671	3.465100
212.278881	3591.034905	1.631540	-0.088680	3.469720
212.591571	3602.034843	1.636545	-0.088741	3.474353
212.994901	3613.063222	1.641550	-0.088820	3.479001
213.484147	3624.075834	1.646555	-0.088914	3.483646
213.696100	3635.093484	1.651559	-0.088957	3.488256
213.994314	3646.109226	1.656564	-0.089015	3.492869
214.232904	3657.114605	1.661569	-0.089063	3.497464
214.725277	3668.121614	1.666573	-0.089158	3.502082
214.821329	3679.182327	1.671578	-0.089179	3.506672
215.051468	3690.169196	1.676583	-0.089224	3.511241
215.439537	3701.179334	1.681588	-0.089300	3.515830
215.606093	3712.200415	1.686592	-0.089334	3.520394
215.861275	3723.240865	1.691597	-0.089385	3.524969
216.227066	3734.229626	1.696602	-0.089456	3.529529
216.522975	3745.258599	1.701606	-0.089514	3.534092
216.856127	3756.276091	1.706611	-0.089579	3.538649
217.151666	3767.270161	1.711616	-0.089638	3.543186
217.988252	3778.270812	1.716621	-0.089797	3.547779
218.119545	3789.300516	1.721625	-0.089825	3.552301
218.824632	3800.304012	1.726630	-0.089960	3.556868
219.230139	3811.338067	1.731635	-0.090039	3.561410
219.673830	3822.357190	1.736640	-0.090125	3.565944
219.860080	3833.387237	1.741644	-0.090162	3.570448
220.290354	3844.368618	1.746649	-0.090246	3.574953
220.543520	3855.399869	1.751654	-0.090296	3.579454
220.799578	3866.446781	1.756658	-0.090347	3.583956
221.061148	3877.453061	1.761663	-0.090399	3.588436
221.466760	3888.446684	1.766668	-0.090477	3.592921
221.798908	3899.476996	1.771673	-0.090542	3.597407
222.215866	3910.461695	1.776677	-0.090623	3.601878
222.604917	3921.515156	1.781682	-0.090699	3.606368
223.002948	3932.501099	1.786687	-0.090776	3.610826
223.449751	3943.525449	1.791692	-0.090863	3.615299
223.774844	3954.542988	1.796696	-0.090927	3.619751
223.953441	3965.581009	1.801701	-0.090963	3.624190
224.148256	3976.583156	1.806706	-0.091002	3.628611
224.276743	3987.611648	1.811710	-0.091029	3.633031
224.679379	3998.614552	1.816715	-0.091107	3.637463
224.782400	4009.634604	1.821720	-0.091129	3.641865
225.276916	4020.633746	1.826725	-0.091225	3.646295
225.512271	4031.646983	1.831729	-0.091272	3.650697
225.802536	4042.697916	1.836734	-0.091329	3.655115
226.099395	4053.676470	1.841739	-0.091388	3.659500
226.427739	4064.713079	1.846744	-0.091452	3.663905
226.792778	4075.719744	1.851748	-0.091523	3.668297
227.250686	4086.721274	1.856753	-0.091612	3.672691
227.510749	4097.806059	1.861758	-0.091663	3.677093
227.968737	4108.786358	1.866762	-0.091752	3.681468
228.372149	4119.831582	1.871767	-0.091830	3.685858
228.839291	4130.849182	1.876772	-0.091921	3.690238
229.071531	4141.859999	1.881777	-0.091967	3.694586
229.416698	4152.873888	1.886781	-0.092035	3.698942
229.741772	4163.906257	1.891786	-0.092098	3.703298
229.936315	4174.916954	1.896791	-0.092137	3.707627
230.174277	4185.925501	1.901795	-0.092185	3.711954
230.699987	4196.926591	1.906800	-0.092286	3.716303
230.926954	4207.953009	1.911805	-0.092332	3.720626
231.333623	4218.973534	1.916810	-0.092411	3.724959
231.511437	4229.974472	1.921814	-0.092447	3.729258
231.868657	4240.996107	1.926819	-0.092516	3.733576
232.332778	4252.017919	1.931824	-0.092606	3.737901
232.731773	4263.022030	1.936829	-0.092684	3.742207
233.146014	4274.056239	1.941833	-0.092764	3.746522
233.449409	4285.047034	1.946838	-0.092824	3.750803
233.526346	4296.093038	1.951843	-0.092841	3.755079
233.781831	4307.100554	1.956847	-0.092892	3.759352
233.927585	4318.126048	1.961852	-0.092922	3.763617
