Wed Nov 23 19:06:18 2022

Number of Points = 2200
Depth (nm)	Load (µN)	Time (s)	Depth (V)	Load (V)
-5.323983	0.569952	0.000000	0.040174	0.940029
0.000000	6.185905	0.005005	0.039174	0.951880
4.371187	15.355270	0.010009	0.038351	0.968473
7.702968	26.226122	0.015014	0.037724	0.986754
10.054517	37.543276	0.020019	0.037279	1.004822
11.885571	48.864092	0.025024	0.036933	1.022295
13.316466	60.190568	0.030028	0.036662	1.039271
14.350229	71.476245	0.035033	0.036465	1.055711
15.220237	82.701301	0.040038	0.036299	1.071731
15.944294	93.879050	0.045043	0.036160	1.087378
16.700782	105.037450	0.050047	0.036016	1.102791
17.228101	116.207528	0.055052	0.035914	1.117896
18.008210	127.304981	0.060057	0.035765	1.132826
18.415137	138.494492	0.065061	0.035686	1.147503
18.797743	149.634607	0.070066	0.035611	1.161919
19.712839	160.567012	0.075071	0.035437	1.176144
21.853136	171.508707	0.080076	0.035032	1.190767
22.833042	182.777498	0.085080	0.034846	1.205090
23.634836	193.980791	0.090085	0.034693	1.219086
24.930962	204.932668	0.095090	0.034447	1.232839
26.699032	215.942076	0.100094	0.034112	1.246711
29.830459	226.787132	0.105099	0.033522	1.260819
31.194029	238.187385	0.110104	0.033263	1.274666
32.452842	249.331185	0.115109	0.033024	1.288024
33.822918	260.440142	0.120113	0.032764	1.301252
35.468543	271.506764	0.125118	0.032453	1.314410
36.453465	282.678042	0.130123	0.032265	1.327286
37.907930	293.647494	0.135128	0.031990	1.340004
39.578478	304.710804	0.140132	0.031673	1.352789
40.528277	315.912293	0.145137	0.031492	1.365320
41.799462	326.949960	0.150142	0.031251	1.377685
42.729705	338.077179	0.155146	0.031074	1.389904
43.806356	349.141859	0.160151	0.030869	1.402006
45.179875	360.133800	0.165156	0.030609	1.414039
46.326607	371.263417	0.170161	0.030391	1.426028
47.212026	382.384205	0.175165	0.030222	1.437810
48.076185	393.451278	0.180170	0.030057	1.449434
48.947020	404.532598	0.185175	0.029891	1.460981
50.067886	415.522934	0.190180	0.029678	1.472437
51.197215	426.601761	0.195184	0.029463	1.483894
52.198640	437.679054	0.200189	0.029272	1.495216
53.056529	448.759431	0.205194	0.029109	1.506405
54.218181	459.782198	0.210198	0.028888	1.517560
55.042331	470.878809	0.215203	0.028731	1.528589
56.183922	481.914389	0.220208	0.028514	1.539588
57.045562	492.999718	0.225213	0.028349	1.550460
57.743952	504.094089	0.230217	0.028216	1.561210
58.334249	515.156798	0.235222	0.028102	1.571820
59.350494	526.143430	0.240227	0.027909	1.582429
60.322034	537.181651	0.245232	0.027724	1.593000
61.330589	548.243472	0.250236	0.027532	1.603535
62.116841	559.344742	0.255241	0.027381	1.613964
62.923501	570.386556	0.260246	0.027227	1.624278
63.867790	581.409774	0.265250	0.027047	1.634555
64.704434	592.474853	0.270255	0.026888	1.644769
65.672744	603.488165	0.275260	0.026703	1.654916
66.500039	614.564850	0.280265	0.026545	1.665012
67.408616	625.611547	0.285269	0.026372	1.675046
68.140637	636.693323	0.290274	0.026232	1.684996
68.717258	647.737456	0.295279	0.026121	1.694806
69.522483	658.773332	0.300283	0.025967	1.704623
70.174279	669.833643	0.305288	0.025842	1.714357
71.243466	680.801963	0.310293	0.025639	1.724083
71.611940	691.974228	0.315298	0.025567	1.733717
72.193732	702.970255	0.320302	0.025455	1.743213
72.933385	713.981979	0.325307	0.025313	1.752716
73.657747	725.036919	0.330312	0.025175	1.762200
74.577736	736.054421	0.335317	0.024999	1.771659
75.205334	747.130555	0.340321	0.024879	1.781030
76.062902	758.129310	0.345326	0.024715	1.790355
76.542141	769.239222	0.350331	0.024623	1.799614
77.211455	780.233584	0.355335	0.024494	1.808785
77.866497	791.287339	0.360340	0.024369	1.817953
78.852984	802.267317	0.365345	0.024181	1.827110
79.508907	813.372040	0.370350	0.024055	1.836227
79.819403	824.458295	0.375354	0.023994	1.845188
80.537023	835.440457	0.380359	0.023857	1.854136
81.257115	846.450852	0.385364	0.023719	1.863063
81.925935	857.514612	0.390369	0.023591	1.871976
82.599138	868.556618	0.395373	0.023461	1.880830
83.005551	879.613417	0.400378	0.023382	1.889582
83.650940	890.623980	0.405383	0.023259	1.898321
84.569777	901.617336	0.410387	0.023084	1.907081
85.378003	912.674541	0.415392	0.022929	1.915819
85.960660	923.735116	0.420397	0.022817	1.924460
86.515551	934.785272	0.425402	0.022710	1.933047
87.004391	945.829900	0.430406	0.022616	1.941574
87.337709	956.859835	0.435411	0.022550	1.950012
88.160208	967.837924	0.440416	0.022393	1.958502
88.774414	978.897210	0.445421	0.022275	1.966961
89.400290	989.937976	0.450425	0.022155	1.975373
89.893315	1000.983031	0.455430	0.022060	1.983719
90.339795	1012.026267	0.460435	0.021973	1.992016
91.088466	1023.010876	0.465439	0.021830	2.000312
91.836495	1034.057982	0.470444	0.021687	2.008619
92.541539	1045.114580	0.475449	0.021552	2.016887
93.039202	1056.171253	0.480454	0.021456	2.025070
93.365956	1067.191237	0.485458	0.021392	2.033151
94.198143	1078.166228	0.490463	0.021233	2.041292
94.771051	1089.255410	0.495468	0.021123	2.049418
95.256563	1100.270986	0.500472	0.021029	2.057439
95.921751	1111.308855	0.505477	0.020902	2.065487
96.296600	1122.348213	0.510482	0.020828	2.073435
96.805157	1133.374615	0.515487	0.020730	2.081375
97.076103	1144.427381	0.520491	0.020677	2.089246
97.791296	1155.407034	0.525496	0.020540	2.097143
98.359325	1166.441237	0.530501	0.020430	2.105012
99.030611	1177.468098	0.535506	0.020302	2.112872
99.711769	1188.491002	0.540510	0.020171	2.120702
100.378320	1199.530442	0.545515	0.020043	2.128511
100.885035	1210.573819	0.550520	0.019946	2.136256
101.515877	1221.594726	0.555524	0.019825	2.143986
102.329151	1232.559806	0.560529	0.019669	2.151693
103.183889	1243.654657	0.565534	0.019506	2.159470
103.608434	1254.682197	0.570539	0.019424	2.167074
104.234018	1265.718352	0.575543	0.019304	2.174703
104.793919	1276.725681	0.580548	0.019196	2.182271
105.250944	1287.775639	0.585553	0.019107	2.189817
105.892877	1298.779544	0.590558	0.018984	2.197349
106.412137	1309.841975	0.595562	0.018884	2.204866
106.910142	1320.841414	0.600567	0.018788	2.212310
107.429149	1331.897840	0.605572	0.018688	2.219772
108.252265	1342.847124	0.610576	0.018531	2.227206
109.113547	1353.902861	0.615581	0.018366	2.234693
109.410186	1364.969008	0.620586	0.018308	2.242037
109.859774	1376.010637	0.625591	0.018221	2.249374
110.398275	1387.021249	0.630595	0.018117	2.256687
110.876348	1398.044326	0.635600	0.018024	2.263971
111.684567	1409.003597	0.640605	0.017870	2.271261
112.198238	1420.104691	0.645610	0.017771	2.278556
112.726690	1431.101320	0.650614	0.017669	2.285764
113.228744	1442.154999	0.655619	0.017572	2.292979
113.645734	1453.164898	0.660624	0.017491	2.300125
114.116466	1464.190848	0.665628	0.017400	2.307271
114.568548	1475.238337	0.670633	0.017313	2.314405
115.018130	1486.235572	0.675638	0.017225	2.321483
115.547547	1497.268727	0.680643	0.017123	2.328580
115.991283	1508.312596	0.685647	0.017037	2.335644
116.562730	1519.293095	0.690652	0.016927	2.342673
117.359396	1530.298865	0.695657	0.016775	2.349743
117.789548	1541.382228	0.700661	0.016692	2.356765
118.270062	1552.392676	0.705666	0.016599	2.363730
118.645648	1563.425305	0.710671	0.016526	2.370667
119.204676	1574.433775	0.715676	0.016418	2.377606
119.978422	1585.433244	0.720680	0.016270	2.384564
120.470612	1596.495495	0.725685	0.016175	2.391482
120.828116	1607.528605	0.730690	0.016105	2.398334
121.093799	1618.550595	0.735695	0.016053	2.405142
121.713375	1629.564055	0.740699	0.015934	2.411997
122.006737	1640.602336	0.745704	0.015876	2.418781
122.567454	1651.576811	0.750709	0.015768	2.425561
123.366791	1662.598209	0.755713	0.015615	2.432398
123.833528	1673.661771	0.760718	0.015525	2.439175
124.120659	1684.693445	0.765723	0.015468	2.445878
124.569892	1695.698613	0.770728	0.015381	2.452579
124.894301	1706.737022	0.775732	0.015318	2.459257
125.818631	1717.705942	0.780737	0.015142	2.465992
126.395928	1728.753921	0.785742	0.015030	2.472689
126.696414	1739.811728	0.790747	0.014971	2.479319
127.099193	1750.834083	0.795751	0.014893	2.485930
127.578964	1761.836722	0.800756	0.014800	2.492527
128.105631	1772.850513	0.805761	0.014699	2.499121
128.794467	1783.856618	0.810765	0.014567	2.505725
129.324643	1794.906161	0.815770	0.014465	2.512306
129.750032	1805.924847	0.820775	0.014382	2.518832
130.059320	1816.975528	0.825780	0.014321	2.525337
130.625265	1827.963176	0.830784	0.014212	2.531838
130.976833	1839.008303	0.835789	0.014144	2.538315
131.448880	1850.002702	0.840794	0.014052	2.544768
131.990405	1861.041134	0.845799	0.013948	2.551243
132.342714	1872.065781	0.850803	0.013879	2.557659
132.951020	1883.069532	0.855808	0.013762	2.564094
133.392682	1894.118917	0.860813	0.013677	2.570507
133.912864	1905.181092	0.865817	0.013576	2.576927
134.065189	1916.181567	0.870822	0.013545	2.583228
134.636650	1927.146166	0.875827	0.013435	2.589569
135.098722	1938.183461	0.880832	0.013346	2.595916
135.540689	1949.228353	0.885836	0.013260	2.602249
135.889451	1960.237072	0.890841	0.013192	2.608528
136.646137	1971.220720	0.895846	0.013047	2.614852
136.995449	1982.290260	0.900850	0.012979	2.621135
137.499320	1993.292283	0.905855	0.012882	2.627393
138.144480	2004.278901	0.910860	0.012758	2.633652
138.568590	2015.350721	0.915865	0.012675	2.639905
139.028175	2026.352137	0.920869	0.012587	2.646110
139.557768	2037.404984	0.925874	0.012484	2.652341
139.721836	2048.400812	0.930879	0.012451	2.658461
140.187783	2059.398630	0.935884	0.012361	2.664621
140.581349	2070.418297	0.940888	0.012284	2.670767
141.028499	2081.446298	0.945893	0.012198	2.676912
141.445051	2092.463238	0.950898	0.012117	2.683031
141.888650	2103.477906	0.955902	0.012031	2.689140
142.222307	2114.516386	0.960907	0.011965	2.695229
142.507487	2125.544566	0.965912	0.011909	2.701290
142.926498	2136.519986	0.970917	0.011828	2.707332
143.369009	2147.575826	0.975921	0.011742	2.713407
143.896906	2158.554482	0.980926	0.011640	2.719442
144.366662	2169.620490	0.985931	0.011549	2.725501
144.747249	2180.626156	0.990936	0.011475	2.731498
145.216687	2191.637274	0.995940	0.011384	2.737500
145.583383	2202.664094	1.000945	0.011313	2.743480
145.950939	2213.699414	1.005950	0.011241	2.749452
146.405913	2224.687912	1.010954	0.011153	2.755400
146.675350	2235.751247	1.015959	0.011100	2.761344
146.772759	2246.769265	1.020964	0.011079	2.767222
147.125206	2257.772863	1.025969	0.011010	2.773123
147.421310	2268.781964	1.030973	0.010952	2.779004
148.060794	2279.780266	1.035978	0.010829	2.784924
148.502094	2290.823119	1.040983	0.010743	2.790822
148.820476	2301.862885	1.045988	0.010681	2.796686
149.361843	2312.849054	1.050992	0.010577	2.802546
149.841915	2323.879147	1.055997	0.010484	2.808406
150.152715	2334.926933	1.061002	0.010423	2.814236
150.718238	2345.889582	1.066006	0.010314	2.820050
151.116567	2356.940017	1.071011	0.010236	2.825871
151.762898	2367.956097	1.076016	0.010112	2.831702
151.818064	2379.001025	1.081021	0.010099	2.837441
152.125650	2390.011421	1.086025	0.010039	2.843191
152.393438	2401.019887	1.091030	0.009986	2.848921
152.633962	2412.051992	1.096035	0.009938	2.854648
152.987714	2423.071609	1.101039	0.009869	2.860375
153.179797	2434.089946	1.106044	0.009830	2.866065
153.518605	2445.106563	1.111049	0.009764	2.871765
153.734039	2456.130897	1.116054	0.009721	2.877438
154.107797	2467.120009	1.121058	0.009648	2.883107
154.773316	2478.139110	1.126063	0.009520	2.888826
155.212233	2489.175391	1.131068	0.009435	2.894506
155.809158	2500.174353	1.136073	0.009320	2.900181
156.128685	2511.210803	1.141077	0.009258	2.905821
156.446102	2522.261064	1.146082	0.009195	2.911456
156.738829	2533.226072	1.151087	0.009138	2.917033
157.079505	2544.274715	1.156091	0.009071	2.922649
157.318812	2555.293248	1.161096	0.009024	2.928224
157.703235	2566.319968	1.166101	0.008949	2.933814
157.772834	2577.324874	1.171106	0.008933	2.939335
158.136269	2588.342432	1.176110	0.008862	2.944896
158.461910	2599.356391	1.181115	0.008798	2.950439
158.758909	2610.398885	1.186120	0.008740	2.955982
159.120665	2621.393747	1.191125	0.008669	2.961500
159.539732	2632.413578	1.196129	0.008588	2.967029
160.091536	2643.402880	1.201134	0.008481	2.972552
160.425293	2654.466585	1.206139	0.008416	2.978069
161.074727	2665.420909	1.211143	0.008291	2.983568
161.713023	2676.489684	1.216148	0.008169	2.989112
162.095918	2687.496547	1.221153	0.008094	2.994578
162.317809	2698.555287	1.226158	0.008050	3.000035
162.354894	2709.563703	1.231162	0.008040	3.005430
162.762671	2720.578874	1.236167	0.007961	3.010873
163.093133	2731.564014	1.241172	0.007896	3.016280
163.348696	2742.608417	1.246177	0.007846	3.021696
163.655753	2753.604113	1.251181	0.007785	3.027085
163.946288	2764.654327	1.256186	0.007728	3.032489
164.008786	2775.667065	1.261191	0.007714	3.037832
164.353887	2786.687094	1.266195	0.007646	3.043210
164.548629	2797.704612	1.271200	0.007607	3.048556
165.014281	2808.678941	1.276205	0.007517	3.053910
165.377989	2819.719702	1.281210	0.007446	3.059272
165.744525	2830.739690	1.286214	0.007374	3.064615
166.142858	2841.754848	1.291219	0.007297	3.069951
166.534014	2852.783906	1.296224	0.007221	3.075283
167.061288	2863.781609	1.301228	0.007119	3.080610
167.561235	2874.804418	1.306233	0.007023	3.085936
167.953040	2885.829654	1.311238	0.006946	3.091238
168.276636	2896.843821	1.316243	0.006883	3.096517
168.575623	2907.860043	1.321247	0.006824	3.101783
168.902347	2918.887769	1.326252	0.006760	3.107050
169.110680	2929.914682	1.331257	0.006718	3.112292
169.349037	2940.934329	1.336262	0.006671	3.117525
169.567509	2951.946113	1.341266	0.006627	3.122743
169.671747	2962.986961	1.346271	0.006605	3.127949
170.110547	2973.947160	1.351276	0.006520	3.133156
170.591428	2984.999676	1.356280	0.006427	3.138403
171.014646	2995.981307	1.361285	0.006345	3.143600
171.405282	3007.037945	1.366290	0.006268	3.148818
171.382317	3018.055090	1.371295	0.006270	3.153954
171.900351	3029.063191	1.376299	0.006170	3.159150
172.161184	3040.074506	1.381304	0.006118	3.164304
172.723309	3051.080580	1.386309	0.006010	3.169488
172.922820	3062.124206	1.391314	0.005970	3.174632
173.218618	3073.146371	1.396318	0.005912	3.179770
173.373867	3084.149853	1.401323	0.005880	3.184873
173.655757	3095.175592	1.406328	0.005824	3.189995
174.082544	3106.169715	1.411332	0.005742	3.195113
174.266917	3117.226555	1.416337	0.005704	3.200219
174.388612	3128.207783	1.421342	0.005679	3.205274
174.851244	3139.244629	1.426347	0.005589	3.210392
175.000425	3150.249033	1.431351	0.005558	3.215445
175.389217	3161.264455	1.436356	0.005483	3.220527
175.889115	3172.260053	1.441361	0.005386	3.225607
176.154485	3183.324814	1.446366	0.005334	3.230679
176.425875	3194.297576	1.451370	0.005280	3.235702
176.777738	3205.337433	1.456375	0.005211	3.240758
177.097600	3216.346881	1.461380	0.005149	3.245788
177.517950	3227.386935	1.466384	0.005067	3.250837
177.649058	3238.387357	1.471389	0.005040	3.255823
177.898798	3249.399093	1.476394	0.004990	3.260822
178.292315	3260.410300	1.481399	0.004913	3.265831
178.534180	3271.445473	1.486403	0.004865	3.270824
178.949803	3282.442406	1.491408	0.004785	3.275814
179.377596	3293.473957	1.496413	0.004702	3.280814
179.689275	3304.473591	1.501417	0.004640	3.285776
180.044767	3315.516810	1.506422	0.004571	3.290757
180.269058	3326.520725	1.511427	0.004526	3.295695
180.701791	3337.529636	1.516432	0.004442	3.300655
180.991986	3348.563827	1.521436	0.004385	3.305600
181.316468	3359.572019	1.526441	0.004321	3.310530
181.508206	3370.590296	1.531446	0.004283	3.315441
181.961056	3381.605990	1.536451	0.004195	3.320377
182.133930	3392.616906	1.541455	0.004160	3.325267
182.586839	3403.654008	1.546460	0.004072	3.330197
182.672854	3414.639580	1.551465	0.004053	3.335051
183.068022	3425.660264	1.556469	0.003976	3.339952
183.278262	3436.702866	1.561474	0.003934	3.344832
183.323227	3447.752938	1.566479	0.003923	3.349688
183.722790	3458.688454	1.571484	0.003845	3.354531
184.112253	3469.737236	1.576488	0.003770	3.359415
184.602899	3480.745411	1.581493	0.003675	3.364286
185.003873	3491.788789	1.586498	0.003597	3.369154
185.100179	3502.784969	1.591503	0.003576	3.373958
185.599544	3513.785789	1.596507	0.003480	3.378806
185.969680	3524.793817	1.601512	0.003407	3.383634
186.459272	3535.847849	1.606517	0.003313	3.388490
186.782098	3546.841552	1.611521	0.003250	3.393292
186.977373	3557.891839	1.616526	0.003210	3.398096
187.197724	3568.890935	1.621531	0.003166	3.402875
187.536345	3579.916176	1.626536	0.003100	3.407672
187.703473	3590.903529	1.631540	0.003066	3.412426
188.115008	3601.937111	1.636545	0.002986	3.417222
188.240796	3612.957676	1.641550	0.002959	3.421971
188.521942	3623.988395	1.646555	0.002904	3.426737
188.751986	3634.981099	1.651559	0.002858	3.431474
189.069298	3646.002269	1.656564	0.002796	3.436226
189.349477	3657.022226	1.661569	0.002741	3.440967
189.719366	3668.027710	1.666573	0.002668	3.445706
189.907344	3679.071833	1.671578	0.002630	3.450434
190.056779	3690.072896	1.676583	0.002600	3.455132
190.319857	3701.076856	1.681588	0.002548	3.459838
190.931329	3712.089907	1.686592	0.002430	3.464582
191.197839	3723.125084	1.691597	0.002377	3.469289
191.467973	3734.119129	1.696602	0.002324	3.473972
191.729709	3745.164582	1.701606	0.002272	3.478670
191.878499	3756.176244	1.706611	0.002241	3.483334
192.216588	3767.171683	1.711616	0.002175	3.488006
192.353461	3778.208324	1.716621	0.002147	3.492667
192.667322	3789.197307	1.721625	0.002085	3.497321
193.154992	3800.214771	1.726630	0.001991	3.502002
193.301793	3811.259227	1.731635	0.001961	3.506648
193.638279	3822.261527	1.736640	0.001895	3.511292
193.946048	3833.274572	1.741644	0.001834	3.515931
194.327653	3844.286851	1.746649	0.001760	3.520572
194.535652	3855.308004	1.751654	0.001718	3.525190
194.690455	3866.338742	1.756658	0.001687	3.529801
194.780060	3877.347642	1.761663	0.001667	3.534389
195.265365	3888.362257	1.766668	0.001573	3.539018
195.587224	3899.362920	1.771673	0.001510	3.543617
196.018545	3910.387794	1.776677	0.001426	3.548232
196.206855	3921.411499	1.781682	0.001388	3.552813
196.636590	3932.404880	1.786687	0.001305	3.557402
196.673219	3943.443100	1.791692	0.001295	3.561961
196.956312	3954.458698	1.796696	0.001240	3.566532
197.416172	3965.436586	1.801701	0.001151	3.571100
197.596089	3976.494294	1.806706	0.001114	3.575665
197.656091	3987.499549	1.811710	0.001100	3.580189
197.871849	3998.536455	1.816715	0.001057	3.584737
198.300496	4009.514531	1.821720	0.000974	3.589279
198.597947	4020.537423	1.826725	0.000915	3.593819
198.857307	4031.585473	1.831729	0.000864	3.598360
199.200376	4042.581706	1.836734	0.000797	3.602882
199.353733	4053.605093	1.841739	0.000765	3.607390
199.664615	4064.598131	1.846744	0.000704	3.611896
199.995575	4075.624438	1.851748	0.000639	3.616412
200.340233	4086.628087	1.856753	0.000572	3.620915
200.625123	4097.693219	1.861758	0.000516	3.625431
200.721806	4108.711988	1.866762	0.000495	3.629902
200.866672	4119.740161	1.871767	0.000465	3.634376
201.262069	4130.739709	1.876772	0.000388	3.638860
201.585904	4141.776754	1.881777	0.000324	3.643346
201.940054	4152.797972	1.886781	0.000255	3.647823
202.013604	4163.792957	1.891786	0.000239	3.652255
202.578127	4174.801763	1.896791	0.000130	3.656738
202.830676	4185.823453	1.901795	0.000080	3.661188
203.084340	4196.859265	1.906800	0.000030	3.665639
203.514984	4207.848166	1.911805	-0.000054	3.670084
203.811152	4218.882164	1.916810	-0.000112	3.674527
203.830596	4229.906915	1.921814	-0.000119	3.678932
204.095263	4240.908079	1.926819	-0.000171	3.683348
204.199749	4251.958319	1.931824	-0.000193	3.687762
204.498365	4262.925623	1.936829	-0.000252	3.692157
204.860343	4273.939232	1.941833	-0.000323	3.696572
205.070523	4284.955557	1.946838	-0.000365	3.700967
205.320970	4296.003823	1.951843	-0.000415	3.705374
205.480943	4307.007766	1.956847	-0.000447	3.709749
205.708949	4318.007944	1.961852	-0.000493	3.714124
206.162450	4329.017292	1.966857	-0.000581	3.718520
206.539197	4340.051270	1.971862	-0.000654	3.722913
206.875272	4351.072695	1.976866	-0.000720	3.727292
206.872937	4362.064837	1.981871	-0.000722	3.731619
207.446321	4373.064675	1.986876	-0.000832	3.736003
207.966428	4384.102830	1.991881	-0.000933	3.740391
208.464366	4395.123495	1.996885	-0.001029	3.744765
208.632721	4406.131598	2.001890	-0.001063	3.749096
