Wed Nov 23 18:09:14 2022

Number of Points = 2200
Depth (nm)	Load (µN)	Time (s)	Depth (V)	Load (V)
-35.338565	0.173227	0.000000	0.060860	0.872482
-13.522894	1.274696	0.005005	0.056766	0.887996
0.000000	11.861700	0.010009	0.054226	0.913651
2.865100	24.952207	0.015014	0.053685	0.936291
5.387199	36.796138	0.020019	0.053209	0.956270
8.400510	48.132171	0.025024	0.052641	0.975344
9.677919	59.792465	0.030028	0.052398	0.993575
10.731379	71.085113	0.035033	0.052198	1.010816
13.620624	81.894528	0.040038	0.051653	1.028050
16.258811	93.060731	0.045043	0.051155	1.045370
19.137561	104.199234	0.050047	0.050612	1.062491
22.314991	115.260416	0.055052	0.050013	1.079383
24.579057	126.638725	0.060057	0.049586	1.095986
26.363590	137.908920	0.065061	0.049248	1.111960
28.122662	149.107528	0.070066	0.048915	1.127600
29.682721	160.289144	0.075071	0.048620	1.142909
31.288223	171.412051	0.080076	0.048316	1.157960
32.886621	182.520296	0.085080	0.048013	1.172795
34.740572	193.609367	0.090085	0.047662	1.187537
36.332301	204.766934	0.095090	0.047361	1.202062
37.997951	215.877700	0.100094	0.047046	1.216389
39.076955	227.099578	0.105099	0.046840	1.230423
40.612425	238.120513	0.110104	0.046550	1.244258
42.226369	249.209573	0.115109	0.046244	1.258053
43.802132	260.311275	0.120113	0.045946	1.271697
45.262224	271.399679	0.125118	0.045669	1.285130
46.585051	282.586561	0.130123	0.045418	1.298479
47.630965	293.706921	0.135128	0.045219	1.311502
49.062974	304.741702	0.140132	0.044947	1.324458
50.052056	315.863336	0.145137	0.044759	1.337205
51.274109	326.918525	0.150142	0.044527	1.349851
52.634923	337.963918	0.155146	0.044269	1.362424
54.176608	349.003098	0.160151	0.043977	1.374944
55.387145	360.156615	0.165156	0.043747	1.387344
56.502197	371.248386	0.170161	0.043535	1.399532
57.698197	382.286618	0.175165	0.043308	1.411588
59.077173	393.359137	0.180170	0.043046	1.423646
60.145787	404.437184	0.185175	0.042843	1.435492
61.400150	415.515499	0.190180	0.042605	1.447310
62.509367	426.596981	0.195184	0.042394	1.458981
63.717262	437.644066	0.200189	0.042165	1.470559
64.669653	448.752802	0.205194	0.041983	1.482017
65.818233	459.772406	0.210198	0.041765	1.493368
67.238163	470.799356	0.215203	0.041496	1.504735
68.275944	481.916227	0.220208	0.041298	1.515970
69.171090	493.023988	0.225213	0.041128	1.527064
69.820145	504.113027	0.230217	0.041003	1.537974
70.954841	515.074588	0.235222	0.040788	1.548851
72.046859	526.147391	0.240227	0.040580	1.559743
73.133867	537.194883	0.245232	0.040373	1.570534
73.968768	548.289983	0.250236	0.040214	1.581210
75.182189	559.276868	0.255241	0.039983	1.591839
76.095895	570.396312	0.260246	0.039809	1.602421
77.261900	581.390949	0.265250	0.039588	1.612901
78.194849	592.536514	0.270255	0.039410	1.623374
79.124047	603.519545	0.275260	0.039233	1.633632
80.041566	614.586014	0.280265	0.039058	1.643896
80.813484	625.655477	0.285269	0.038910	1.654053
81.878479	636.677594	0.290274	0.038708	1.664198
82.635682	647.747239	0.295279	0.038563	1.674226
83.379304	658.824550	0.300283	0.038421	1.684196
84.385529	669.810286	0.305288	0.038229	1.694109
84.885854	680.957459	0.310293	0.038132	1.703949
85.738109	691.914235	0.315298	0.037970	1.713674
86.684894	702.967045	0.320302	0.037789	1.723456
87.685311	713.979768	0.325307	0.037599	1.733163
88.656166	725.044500	0.330312	0.037414	1.742852
89.450422	736.108908	0.335317	0.037262	1.752433
90.130745	747.183330	0.340321	0.037132	1.761937
90.747428	758.226913	0.345326	0.037013	1.771345
91.731814	769.222928	0.350331	0.036826	1.780771
92.568385	780.244963	0.355335	0.036666	1.790126
93.252342	791.352976	0.360340	0.036535	1.799458
94.009617	802.357879	0.365345	0.036390	1.808678
94.606011	813.439560	0.370350	0.036276	1.817868
95.243295	824.445446	0.375354	0.036153	1.826962
96.211251	835.480914	0.380359	0.035969	1.836127
96.641112	846.558141	0.385364	0.035886	1.845129
97.310370	857.565472	0.390369	0.035757	1.854098
98.255252	868.572632	0.395373	0.035577	1.863099
99.064937	879.627379	0.400378	0.035423	1.872058
99.690636	890.684534	0.405383	0.035303	1.880924
100.436342	901.719339	0.410387	0.035160	1.889765
101.135665	912.727681	0.415392	0.035026	1.898530
101.894037	923.807915	0.420397	0.034881	1.907326
102.573735	934.804386	0.425402	0.034751	1.915997
103.504782	945.823968	0.430406	0.034573	1.924712
104.068040	956.897590	0.435411	0.034465	1.933331
104.862144	967.929543	0.440416	0.034313	1.941942
105.387589	978.983510	0.445421	0.034212	1.950460
105.840313	990.022595	0.450425	0.034124	1.958910
106.654201	1001.005225	0.455430	0.033969	1.967376
107.388488	1012.074652	0.460435	0.033828	1.975849
107.983936	1023.074614	0.465439	0.033714	1.984198
108.682764	1034.153137	0.470444	0.033580	1.992597
109.450146	1045.142980	0.475449	0.033433	2.000912
110.100604	1056.212326	0.480454	0.033308	2.009221
110.753769	1067.250002	0.485458	0.033183	2.017473
111.448726	1078.267551	0.490463	0.033050	2.025688
111.984001	1089.289034	0.495468	0.032947	2.033831
112.876188	1100.324901	0.500472	0.032777	2.042041
113.470062	1111.375644	0.505477	0.032662	2.050155
114.094558	1122.399013	0.510482	0.032542	2.058225
114.659709	1133.417017	0.515487	0.032434	2.066244
115.583284	1144.435138	0.520491	0.032258	2.074319
116.232616	1155.472085	0.525496	0.032133	2.082310
116.987709	1166.524765	0.530501	0.031989	2.090306
117.559850	1177.555314	0.535506	0.031879	2.098212
118.166376	1188.573164	0.540510	0.031762	2.106088
119.011253	1199.585335	0.545515	0.031601	2.113987
119.657191	1210.641989	0.550520	0.031477	2.121839
120.027076	1221.680767	0.555524	0.031405	2.129586
120.701293	1232.692773	0.560529	0.031275	2.137356
121.465961	1243.700419	0.565534	0.031129	2.145117
122.224748	1254.741773	0.570539	0.030984	2.152871
122.706903	1265.799184	0.575543	0.030891	2.160544
123.465228	1276.787200	0.580548	0.030746	2.168205
124.077037	1287.850074	0.585553	0.030628	2.175857
124.475720	1298.903030	0.590558	0.030551	2.183427
125.262168	1309.846220	0.595562	0.030401	2.190984
126.012169	1320.906296	0.600567	0.030257	2.198585
126.555947	1331.956668	0.605572	0.030152	2.206107
127.013907	1343.007389	0.610576	0.030064	2.213583
127.425249	1353.993484	0.615581	0.029984	2.220982
128.111084	1365.047508	0.620586	0.029852	2.228461
128.624565	1376.065958	0.625591	0.029753	2.235854
129.148725	1387.097999	0.630595	0.029652	2.243233
129.626221	1398.120271	0.635600	0.029560	2.250571
130.183725	1409.161126	0.640605	0.029452	2.257915
130.580619	1420.171576	0.645610	0.029375	2.265180
131.037703	1431.206331	0.650614	0.029287	2.272451
131.623775	1442.210418	0.655619	0.029174	2.279706
132.430499	1453.203942	0.660624	0.029020	2.286979
132.937281	1464.304793	0.665628	0.028922	2.294233
133.409833	1475.281017	0.670633	0.028831	2.301377
133.820215	1486.324093	0.675638	0.028751	2.308528
134.647994	1497.319748	0.680643	0.028593	2.315715
135.190742	1508.372210	0.685647	0.028488	2.322855
135.389239	1519.450900	0.690652	0.028448	2.329917
135.831515	1530.418485	0.695657	0.028363	2.336939
136.478324	1541.446465	0.700661	0.028239	2.344021
137.164969	1552.437873	0.705666	0.028107	2.351066
137.886683	1563.480450	0.710671	0.027969	2.358129
138.605370	1574.491171	0.715676	0.027831	2.365151
139.317176	1585.536021	0.720680	0.027695	2.372171
139.742777	1596.580542	0.725685	0.027612	2.379111
140.396574	1607.563198	0.730690	0.027487	2.386039
140.761976	1618.649347	0.735695	0.027416	2.392953
141.331302	1629.636373	0.740699	0.027306	2.399826
141.739380	1640.672433	0.745704	0.027227	2.406677
142.310000	1651.702437	0.750709	0.027117	2.413538
142.661639	1662.708525	0.755713	0.027048	2.420321
143.429444	1673.702913	0.760718	0.026902	2.427160
144.062021	1684.768445	0.765723	0.026780	2.433996
144.580598	1695.757375	0.770728	0.026680	2.440744
145.185532	1706.798983	0.775732	0.026564	2.447522
145.673275	1717.838206	0.780737	0.026470	2.454256
146.348314	1728.838115	0.785742	0.026340	2.460985
146.723397	1739.887426	0.790747	0.026267	2.467667
147.226512	1750.900292	0.795751	0.026170	2.474333
147.798726	1761.905040	0.800756	0.026060	2.480990
148.082398	1772.967818	0.805761	0.026004	2.487608
148.787712	1783.967054	0.810765	0.025869	2.494251
149.336203	1794.972167	0.815770	0.025763	2.500850
150.004217	1805.976800	0.820775	0.025635	2.507454
150.831432	1817.015645	0.825780	0.025477	2.514091
151.311393	1828.051470	0.830784	0.025384	2.520642
151.752563	1839.089389	0.835789	0.025299	2.527170
152.269090	1850.114364	0.840794	0.025199	2.533688
152.708986	1861.113079	0.845799	0.025114	2.540159
153.121585	1872.150915	0.850803	0.025034	2.546632
153.466129	1883.193966	0.855808	0.024966	2.553078
154.008548	1894.170644	0.860813	0.024862	2.559506
154.564706	1905.216374	0.865817	0.024755	2.565960
155.299355	1916.208395	0.870822	0.024614	2.572400
155.750017	1927.322862	0.875827	0.024527	2.578841
156.322542	1938.258940	0.880832	0.024417	2.585187
156.674242	1949.317250	0.885836	0.024348	2.591546
157.253362	1960.319193	0.890841	0.024237	2.597899
157.644291	1971.328387	0.895846	0.024161	2.604206
158.255707	1982.343935	0.900850	0.024043	2.610542
158.764136	1993.388449	0.905855	0.023945	2.616859
159.246271	2004.412064	0.910860	0.023852	2.623145
159.732284	2015.411948	0.915865	0.023758	2.629403
160.163711	2026.435462	0.920869	0.023674	2.635649
160.908395	2037.446792	0.925874	0.023532	2.641929
161.457436	2048.478385	0.930879	0.023426	2.648171
161.929943	2059.478991	0.935884	0.023335	2.654368
162.533295	2070.488544	0.940888	0.023219	2.660577
162.909274	2081.548871	0.945893	0.023145	2.666760
163.560870	2092.533665	0.950898	0.023020	2.672936
164.055181	2103.569655	0.955902	0.022925	2.679097
164.511393	2114.556715	0.960907	0.022837	2.685211
165.288860	2125.606827	0.965912	0.022688	2.691401
165.744605	2136.622857	0.970917	0.022600	2.697502
166.256356	2147.642131	0.975921	0.022501	2.703601
166.728463	2158.669616	0.980926	0.022410	2.709684
167.123495	2169.692140	0.985931	0.022333	2.715737
167.640380	2180.711726	0.990936	0.022233	2.721795
168.276258	2191.719042	0.995940	0.022111	2.727854
168.892792	2202.727605	1.000945	0.021993	2.733896
169.277578	2213.772059	1.005950	0.021918	2.739905
169.929318	2224.757371	1.010954	0.021793	2.745914
170.581073	2235.818905	1.015959	0.021668	2.751950
171.006254	2246.828134	1.020964	0.021585	2.757908
171.485471	2257.836570	1.025969	0.021493	2.763860
171.863050	2268.875333	1.030973	0.021419	2.769799
172.308126	2279.888911	1.035978	0.021333	2.775723
172.883060	2290.900736	1.040983	0.021222	2.781655
173.332493	2301.921607	1.045988	0.021135	2.787558
173.944719	2312.934570	1.050992	0.021017	2.793471
174.354555	2323.997914	1.055997	0.020938	2.799365
174.844497	2334.945962	1.061002	0.020843	2.805199
175.832406	2345.991334	1.066006	0.020655	2.811152
176.291658	2357.038133	1.071011	0.020566	2.817008
176.733458	2368.032515	1.076016	0.020481	2.822821
177.188847	2379.051283	1.081021	0.020392	2.828637
177.963023	2390.064188	1.086025	0.020244	2.834489
178.529403	2401.097102	1.091030	0.020135	2.840306
179.235091	2412.098157	1.096035	0.020000	2.846117
179.810315	2423.147157	1.101039	0.019890	2.851919
180.333179	2434.147066	1.106044	0.019789	2.857676
180.636936	2445.178498	1.111049	0.019729	2.863403
181.256087	2456.203907	1.116054	0.019610	2.869165
181.757313	2467.205028	1.121058	0.019513	2.874884
182.068179	2478.257298	1.126063	0.019452	2.880588
182.364085	2489.273411	1.131068	0.019394	2.886260
182.777228	2500.303136	1.136073	0.019314	2.891946
183.145968	2511.282666	1.141077	0.019242	2.897588
183.710547	2522.300951	1.146082	0.019133	2.903269
184.069022	2533.337374	1.151087	0.019063	2.908916
184.835658	2544.320840	1.156091	0.018917	2.914588
185.201554	2555.387802	1.161096	0.018845	2.920230
185.585029	2566.391192	1.166101	0.018771	2.925831
186.057389	2577.399563	1.171106	0.018679	2.931437
186.623166	2588.411671	1.176110	0.018570	2.937049
187.118422	2599.420799	1.181115	0.018475	2.942638
187.692587	2610.458684	1.186120	0.018364	2.948242
188.078921	2621.497660	1.191125	0.018289	2.953808
188.532944	2632.512872	1.196129	0.018201	2.959361
188.913998	2643.504159	1.201134	0.018127	2.964881
189.521260	2654.541029	1.206139	0.018010	2.970448
189.918059	2665.548802	1.211143	0.017933	2.975957
190.347412	2676.592872	1.216148	0.017850	2.981479
190.780801	2687.577503	1.221153	0.017766	2.986963
191.174253	2698.600584	1.226158	0.017689	2.992449
191.549724	2709.631327	1.231162	0.017616	2.997926
191.923709	2720.645534	1.236167	0.017543	3.003384
192.417198	2731.674206	1.241172	0.017448	3.008857
193.065349	2742.650133	1.246177	0.017323	3.014317
193.553317	2753.705086	1.251181	0.017229	3.019782
194.037810	2764.714926	1.256186	0.017135	3.025215
194.386662	2775.749154	1.261191	0.017067	3.030630
194.765214	2786.754680	1.266195	0.016993	3.036025
195.174718	2797.779323	1.271200	0.016914	3.041425
195.457322	2808.798644	1.276205	0.016858	3.046794
196.090425	2819.791226	1.281210	0.016737	3.052191
196.471979	2830.831732	1.286214	0.016662	3.057565
196.890709	2841.823822	1.291219	0.016581	3.062912
197.168189	2852.884836	1.296224	0.016526	3.068262
197.668281	2863.869191	1.301228	0.016430	3.073598
198.262152	2874.892310	1.306233	0.016315	3.078956
198.711360	2885.897145	1.311238	0.016228	3.084275
199.114404	2896.960081	1.316243	0.016150	3.089607
199.662857	2907.920654	1.321247	0.016044	3.094901
200.056867	2918.978580	1.326252	0.015968	3.100210
200.541472	2929.971756	1.331257	0.015874	3.105492
201.112482	2941.002833	1.336262	0.015764	3.110795
201.425982	2952.019044	1.341266	0.015703	3.116046
201.727125	2963.041268	1.346271	0.015643	3.121289
202.182463	2974.054786	1.351276	0.015555	3.126541
202.662798	2985.067987	1.356280	0.015462	3.131787
203.257804	2996.078395	1.361285	0.015348	3.137038
203.635847	3007.100358	1.366290	0.015274	3.142256
204.135001	3018.120826	1.371295	0.015178	3.147482
204.425445	3029.173905	1.376299	0.015121	3.152685
204.771910	3040.154759	1.381304	0.015053	3.157853
205.262201	3051.168882	1.386309	0.014958	3.163048
205.852045	3062.200059	1.391314	0.014845	3.168256
206.452267	3073.198500	1.396318	0.014730	3.173441
206.765610	3084.234607	1.401323	0.014668	3.178597
207.210016	3095.243288	1.406328	0.014582	3.183749
207.903322	3106.241017	1.411332	0.014449	3.188921
208.350955	3117.286175	1.416337	0.014362	3.194073
208.873327	3128.285128	1.421342	0.014262	3.199205
209.260513	3139.342940	1.426347	0.014186	3.204339
209.566385	3150.338305	1.431351	0.014126	3.209424
209.987225	3161.356274	1.436356	0.014044	3.214527
210.329378	3172.359653	1.441361	0.013977	3.219605
211.013659	3183.359713	1.446366	0.013846	3.224718
211.320016	3194.430363	1.451370	0.013786	3.229805
211.588929	3205.443113	1.456375	0.013733	3.234853
211.984470	3216.409287	1.461380	0.013656	3.239889
212.478277	3227.458239	1.466384	0.013561	3.244966
213.002566	3238.456912	1.471389	0.013460	3.250018
213.527537	3249.480634	1.476394	0.013358	3.255072
213.898612	3260.479107	1.481399	0.013286	3.260087
214.634478	3271.504441	1.486403	0.013145	3.265154
215.028694	3282.524936	1.491408	0.013068	3.270166
215.425870	3293.567454	1.496413	0.012991	3.275181
215.903932	3304.549835	1.501417	0.012899	3.280172
216.446447	3315.601404	1.506422	0.012794	3.285194
216.838677	3326.605155	1.511427	0.012718	3.290167
217.125856	3337.615388	1.516432	0.012661	3.295123
217.795203	3348.609110	1.521436	0.012533	3.300112
218.424836	3359.650403	1.526441	0.012412	3.305110
218.788896	3370.670133	1.531446	0.012341	3.310057
219.117823	3381.707559	1.536451	0.012277	3.315000
219.391690	3392.694284	1.541455	0.012222	3.319905
219.989950	3403.721191	1.546460	0.012107	3.324863
220.540320	3414.720778	1.551465	0.012001	3.329794
221.151138	3425.737085	1.556469	0.011884	3.334733
221.655652	3436.763554	1.561474	0.011787	3.339656
222.008831	3447.784262	1.566479	0.011718	3.344550
222.379112	3458.823033	1.571484	0.011646	3.349447
222.722063	3469.831922	1.576488	0.011578	3.354320
223.169454	3480.819878	1.581493	0.011492	3.359190
223.558811	3491.867696	1.586498	0.011416	3.364071
224.041495	3502.878518	1.591503	0.011323	3.368941
224.217555	3513.888778	1.596507	0.011287	3.373766
224.532548	3524.921156	1.601512	0.011225	3.378610
225.091741	3535.899038	1.606517	0.011117	3.383454
225.663304	3546.924258	1.611521	0.011007	3.388312
226.040469	3557.951836	1.616526	0.010934	3.393141
226.355567	3568.968120	1.621531	0.010872	3.397950
226.800349	3579.982879	1.626536	0.010786	3.402768
227.056152	3591.005644	1.631540	0.010735	3.407559
227.471305	3602.014242	1.636545	0.010655	3.412357
227.939962	3613.021660	1.641550	0.010564	3.417153
228.580497	3624.040776	1.646555	0.010441	3.421969
228.975506	3635.075873	1.651559	0.010364	3.426755
229.373342	3646.076455	1.656564	0.010287	3.431520
229.812553	3657.091448	1.661569	0.010202	3.436289
230.434949	3668.115252	1.666573	0.010082	3.441077
230.669286	3679.137299	1.671578	0.010035	3.445811
231.215074	3690.151629	1.676583	0.009930	3.450573
231.455535	3701.167715	1.681588	0.009882	3.455292
231.865296	3712.179563	1.686592	0.009803	3.460023
232.312046	3723.194472	1.691597	0.009716	3.464753
232.734782	3734.229260	1.696602	0.009634	3.469483
233.088756	3745.223178	1.701606	0.009565	3.474180
233.412931	3756.256748	1.706611	0.009502	3.478884
233.826897	3767.248369	1.711616	0.009421	3.483575
234.499373	3778.273194	1.716621	0.009292	3.488303
234.860013	3789.286292	1.721625	0.009222	3.492983
235.527330	3800.294458	1.726630	0.009094	3.497690
235.793906	3811.322017	1.731635	0.009041	3.502353
236.033158	3822.360070	1.736640	0.008993	3.507011
236.459408	3833.334424	1.741644	0.008911	3.511658
237.194539	3844.367227	1.746649	0.008770	3.516358
237.647672	3855.377846	1.751654	0.008682	3.521010
238.140971	3866.411994	1.756658	0.008587	3.525670
238.403374	3877.424965	1.761663	0.008535	3.530289
238.764982	3888.443700	1.766668	0.008465	3.534916
239.104719	3899.430519	1.771673	0.008398	3.539520
239.721929	3910.468968	1.776677	0.008280	3.544171
239.988896	3921.483840	1.781682	0.008227	3.548767
240.217038	3932.533539	1.786687	0.008181	3.553367
240.469291	3943.527790	1.791692	0.008131	3.557941
241.079287	3954.514096	1.796696	0.008014	3.562545
241.308225	3965.545100	1.801701	0.007968	3.567120
241.947022	3976.534040	1.806706	0.007846	3.571716
242.238965	3987.598302	1.811710	0.007788	3.576299
242.528605	3998.605397	1.816715	0.007731	3.580853
242.941385	4009.589928	1.821720	0.007651	3.585405
243.424691	4020.627082	1.826725	0.007557	3.589980
243.728323	4031.642112	1.831729	0.007498	3.594521
244.073734	4042.676229	1.836734	0.007430	3.599068
244.406112	4053.664571	1.841739	0.007365	3.603589
244.823231	4064.729468	1.846744	0.007284	3.608145
245.184413	4075.689360	1.851748	0.007214	3.612646
245.533601	4086.724831	1.856753	0.007145	3.617171
246.052345	4097.742417	1.861758	0.007045	3.621702
246.453744	4108.796205	1.866762	0.006967	3.626228
246.755316	4119.823570	1.871767	0.006908	3.630728
247.281860	4130.807557	1.876772	0.006806	3.635228
247.596239	4141.834762	1.881777	0.006745	3.639718
248.001527	4152.869619	1.886781	0.006666	3.644214
248.320275	4163.876237	1.891786	0.006603	3.648685
248.613385	4174.910393	1.896791	0.006546	3.653158
248.955125	4185.923757	1.901795	0.006479	3.657622
249.333208	4196.918752	1.906800	0.006405	3.662078
249.877280	4207.915728	1.911805	0.006300	3.666546
250.069872	4218.972207	1.916810	0.006261	3.670995
250.333263	4229.977617	1.921814	0.006209	3.675426
250.651789	4240.997717	1.926819	0.006147	3.679864
251.008573	4252.009637	1.931824	0.006077	3.684296
251.493545	4263.010990	1.936829	0.005983	3.688733
251.836619	4274.010550	1.941833	0.005916	3.693148
252.187085	4285.072706	1.946838	0.005848	3.697584
252.279892	4296.056026	1.951843	0.005828	3.701956
252.909669	4307.073894	1.956847	0.005707	3.706393
253.204140	4318.089533	1.961852	0.005649	3.710788
253.654106	4329.100160	1.966857	0.005562	3.715192
254.154875	4340.123696	1.971862	0.005465	3.719601
254.380443	4351.166492	1.976866	0.005420	3.723985
254.731690	4362.133686	1.981871	0.005351	3.728346
255.085122	4373.196730	1.986876	0.005282	3.732740
255.364296	4384.207371	1.991881	0.005227	3.737100
255.708087	4395.200910	1.996885	0.005160	3.741455
255.924943	4406.223602	2.001890	0.005116	3.745804
