Wed Nov 23 19:06:18 2022

Number of Points = 2200
Depth (nm)	Load (µN)	Time (s)	Depth (V)	Load (V)
-65.821200	0.256977	0.000000	0.154249	0.453221
-54.183018	0.627018	0.005005	0.152065	0.468702
-28.361976	1.278530	0.010009	0.147219	0.500809
0.000000	7.517710	0.015014	0.141896	0.549083
5.702594	23.528394	0.020019	0.140822	0.596529
8.868990	38.480395	0.025024	0.140224	0.635740
11.084479	52.155458	0.030028	0.139805	0.669019
12.958865	64.859280	0.035033	0.139450	0.698365
14.703819	76.984795	0.040038	0.139120	0.725231
16.200309	88.820789	0.045043	0.138836	0.750373
17.433643	100.508835	0.050047	0.138602	0.774221
18.861552	111.950479	0.055052	0.138331	0.797029
20.101181	123.399222	0.060057	0.138096	0.819085
21.354786	134.776087	0.065061	0.137858	0.840442
22.639539	146.111659	0.070066	0.137614	0.861218
23.725621	157.446883	0.075071	0.137407	0.881376
24.982808	168.710353	0.080076	0.137168	0.901069
25.989890	180.021848	0.085080	0.136977	0.920266
29.552735	190.488652	0.090085	0.136306	0.939237
33.957390	201.650939	0.095090	0.135476	0.959402
35.908985	213.292139	0.100094	0.135107	0.978489
37.480902	224.708211	0.105099	0.134809	0.996660
39.157906	235.922002	0.110104	0.134492	1.014263
40.751957	247.152646	0.115109	0.134190	1.031544
42.433319	258.295633	0.120113	0.133872	1.048461
44.064385	269.490776	0.125118	0.133563	1.065154
45.571612	280.676530	0.130123	0.133277	1.081512
46.964961	291.869616	0.135128	0.133013	1.097578
48.864987	302.873815	0.140132	0.132654	1.113408
50.725068	314.045436	0.145137	0.132302	1.129217
52.054715	325.284916	0.150142	0.132050	1.144640
53.795587	336.327140	0.155146	0.131720	1.159798
55.490619	347.473083	0.160151	0.131400	1.174869
56.853912	358.669563	0.165156	0.131141	1.189658
58.170856	369.802605	0.170161	0.130891	1.204166
59.194432	380.986731	0.175165	0.130696	1.218430
60.424740	392.051272	0.180170	0.130463	1.232475
61.671711	403.136778	0.185175	0.130226	1.246393
62.982493	414.250919	0.190180	0.129977	1.260219
64.235344	425.333066	0.195184	0.129740	1.273831
65.180732	436.508228	0.200189	0.129559	1.287276
66.208391	447.632520	0.205194	0.129364	1.300557
67.071279	458.716839	0.210198	0.129199	1.313590
68.369946	469.713103	0.215203	0.128953	1.326574
69.694456	480.787297	0.220208	0.128701	1.339528
70.629527	491.939299	0.225213	0.128523	1.352287
71.824906	502.956212	0.230217	0.128296	1.364882
73.274579	514.021202	0.235222	0.128021	1.377513
74.147838	525.166057	0.240227	0.127855	1.389890
75.352920	536.198011	0.245232	0.127626	1.402164
76.830161	547.214773	0.250236	0.127346	1.414420
78.097428	558.325742	0.255241	0.127106	1.426588
79.197595	569.429227	0.260246	0.126896	1.438582
80.429644	580.474848	0.265250	0.126662	1.450466
81.821731	591.520975	0.270255	0.126398	1.462312
83.037149	602.600659	0.275260	0.126168	1.474031
84.461277	613.638003	0.280265	0.125898	1.485691
85.666767	624.754547	0.285269	0.125669	1.497259
86.620290	635.832577	0.290274	0.125487	1.508609
87.798301	646.890500	0.295279	0.125263	1.519935
88.966474	657.916254	0.300283	0.125041	1.531140
90.284844	668.994291	0.305288	0.124791	1.542367
91.603339	680.016343	0.310293	0.124541	1.553458
92.862842	691.100649	0.315298	0.124302	1.564509
94.259128	702.117041	0.320302	0.124037	1.575463
95.423033	713.225626	0.325307	0.123816	1.586350
96.464134	724.328773	0.330312	0.123618	1.597116
97.407615	735.372573	0.335317	0.123438	1.607721
98.389622	746.418610	0.340321	0.123251	1.618272
99.331992	757.477106	0.345326	0.123072	1.628752
100.462773	768.509317	0.350331	0.122857	1.639201
101.589219	779.517526	0.355335	0.122643	1.649561
103.038242	790.562472	0.360340	0.122368	1.659992
104.193142	801.639526	0.365345	0.122149	1.670292
105.435238	812.675638	0.370350	0.121913	1.680519
106.733436	823.712425	0.375354	0.121667	1.690703
107.848603	834.795952	0.380359	0.121455	1.700808
108.978131	845.831998	0.385364	0.121240	1.710817
109.988364	856.922259	0.390369	0.121048	1.720777
111.078641	867.915330	0.395373	0.120840	1.730619
112.409613	878.939095	0.400378	0.120588	1.740505
113.624580	890.005285	0.405383	0.120357	1.750336
114.656578	901.072647	0.410387	0.120161	1.760057
115.660620	912.126422	0.415392	0.119970	1.769705
116.591329	923.196033	0.420397	0.119792	1.779291
117.440306	934.223508	0.425402	0.119630	1.788766
118.334452	945.261139	0.430406	0.119460	1.798213
119.343623	956.289921	0.435411	0.119268	1.807636
120.178383	967.373706	0.440416	0.119108	1.817005
121.245804	978.350331	0.445421	0.118905	1.826304
122.267880	989.410447	0.450425	0.118711	1.835610
122.970399	1000.508371	0.455430	0.118576	1.844810
124.155208	1011.458138	0.460435	0.118351	1.853979
124.933925	1022.575980	0.465439	0.118202	1.863124
125.700958	1033.603790	0.470444	0.118056	1.872149
126.826267	1044.606207	0.475449	0.117842	1.881210
127.570239	1055.693913	0.480454	0.117699	1.890188
128.562444	1066.695307	0.485458	0.117510	1.899124
129.282793	1077.757055	0.490463	0.117373	1.907991
130.180326	1088.789998	0.495468	0.117201	1.916843
131.047999	1099.833770	0.500472	0.117036	1.925653
131.717827	1110.882439	0.505477	0.116907	1.934374
132.684269	1121.863232	0.510482	0.116723	1.943082
133.336675	1132.954112	0.515487	0.116598	1.951752
134.282727	1143.941671	0.520491	0.116418	1.960382
135.181062	1154.996846	0.525496	0.116247	1.969012
136.020675	1166.028016	0.530501	0.116086	1.977571
136.656151	1177.103292	0.535506	0.115964	1.986073
137.417770	1188.096779	0.540510	0.115819	1.994510
138.258992	1199.130023	0.545515	0.115658	2.002961
139.090480	1210.171841	0.550520	0.115499	2.011380
139.881092	1221.220154	0.555524	0.115348	2.019758
140.511436	1232.244453	0.560529	0.115227	2.028042
141.308004	1243.270735	0.565534	0.115075	2.036336
142.242174	1254.278541	0.570539	0.114897	2.044617
143.007135	1265.339848	0.575543	0.114751	2.052861
143.772723	1276.359586	0.580548	0.114604	2.061042
144.494965	1287.405719	0.585553	0.114466	2.069199
145.223057	1298.430732	0.590558	0.114327	2.077309
145.819236	1309.498281	0.595562	0.114212	2.085385
146.457567	1320.498210	0.600567	0.114090	2.093393
147.317725	1331.524422	0.605572	0.113926	2.101442
148.008076	1342.544364	0.610576	0.113793	2.109414
148.683094	1353.600370	0.615581	0.113664	2.117378
149.449968	1364.590786	0.620586	0.113517	2.125288
150.371351	1375.635511	0.625591	0.113342	2.133243
150.985601	1386.680920	0.630595	0.113224	2.141095
151.572550	1397.729180	0.635600	0.113111	2.148915
152.273686	1408.732800	0.640605	0.112977	2.156701
152.773531	1419.790532	0.645610	0.112880	2.164450
153.492212	1430.777071	0.650614	0.112742	2.172172
154.273978	1441.830571	0.655619	0.112593	2.179928
155.142836	1452.803532	0.660624	0.112427	2.187621
155.829022	1463.906993	0.665628	0.112296	2.195333
156.439298	1474.890968	0.670633	0.112179	2.202920
157.275581	1485.923661	0.675638	0.112019	2.210565
157.946416	1496.957815	0.680643	0.111890	2.218146
158.936533	1507.964735	0.685647	0.111702	2.225756
159.550246	1519.023065	0.690652	0.111584	2.233289
160.126333	1530.067722	0.695657	0.111473	2.240778
160.756052	1541.052968	0.700661	0.111352	2.248215
161.553762	1552.120318	0.705666	0.111200	2.255719
162.026367	1563.135051	0.710671	0.111108	2.263091
162.811583	1574.135133	0.715676	0.110958	2.270499
163.596094	1585.157208	0.720680	0.110808	2.277896
164.366447	1596.190554	0.725685	0.110661	2.285273
164.969355	1607.241503	0.730690	0.110545	2.292601
165.436216	1618.275327	0.735695	0.110455	2.299865
166.316165	1629.236780	0.740699	0.110287	2.307148
166.926690	1640.346317	0.745704	0.110170	2.314446
167.718327	1651.287351	0.750709	0.110019	2.321651
168.394858	1662.378856	0.755713	0.109889	2.328905
169.030905	1673.376163	0.760718	0.109767	2.336068
170.688164	1684.304416	0.765723	0.109453	2.343380
171.566410	1695.374301	0.770728	0.109286	2.350595
172.450606	1706.466291	0.775732	0.109117	2.357803
173.252216	1717.454345	0.780737	0.108964	2.364906
174.094995	1728.490149	0.785742	0.108803	2.372025
175.118766	1739.487054	0.790747	0.108608	2.379137
175.759638	1750.571211	0.795751	0.108485	2.386202
176.434555	1761.585222	0.800756	0.108356	2.393209
177.224403	1772.581281	0.805761	0.108205	2.400208
177.793704	1783.646652	0.810765	0.108095	2.407185
178.374831	1794.693316	0.815770	0.107983	2.414131
178.988512	1805.657735	0.820775	0.107866	2.421014
179.686108	1816.704251	0.825780	0.107732	2.427944
180.332737	1827.720584	0.830784	0.107608	2.434826
181.156952	1838.718128	0.835789	0.107450	2.441712
181.920113	1849.764431	0.840794	0.107305	2.448596
182.663523	1860.805471	0.845799	0.107162	2.455453
183.156931	1871.816501	0.850803	0.107067	2.462223
183.987982	1882.834658	0.855808	0.106908	2.469045
184.327711	1893.911459	0.860813	0.106842	2.475787
184.721184	1904.923884	0.865817	0.106765	2.482482
185.375912	1915.909450	0.870822	0.106640	2.489194
185.969838	1926.950189	0.875827	0.106526	2.495909
186.616159	1937.963546	0.880832	0.106402	2.502600
187.162685	1948.989883	0.885836	0.106296	2.509261
187.724087	1960.012479	0.890841	0.106188	2.515905
188.297701	1971.039383	0.895846	0.106078	2.522536
188.908506	1982.055693	0.900850	0.105960	2.529150
189.419992	1993.079234	0.905855	0.105862	2.535732
190.073598	2004.087917	0.910860	0.105736	2.542315
191.066973	2015.108369	0.915865	0.105547	2.548952
191.880165	2026.105910	0.920869	0.105392	2.555525
192.577520	2037.177649	0.925874	0.105258	2.562101
193.002561	2048.184078	0.930879	0.105176	2.568572
193.645694	2059.249084	0.935884	0.105052	2.575100
194.065346	2070.241230	0.940888	0.104971	2.581529
194.738808	2081.215063	0.945893	0.104842	2.587978
195.132996	2092.276716	0.950898	0.104765	2.594409
195.763535	2103.270946	0.955902	0.104644	2.600829
196.227551	2114.294026	0.960907	0.104554	2.607219
196.973058	2125.321743	0.965912	0.104412	2.613648
197.593038	2136.319621	0.970917	0.104293	2.620021
198.185192	2147.363961	0.975921	0.104179	2.626399
198.744516	2158.384391	0.980926	0.104071	2.632742
199.490115	2169.381933	0.985931	0.103929	2.639090
199.821168	2180.454160	0.990936	0.103864	2.645391
200.505769	2191.458039	0.995940	0.103733	2.651701
200.872548	2202.485496	1.000945	0.103661	2.657953
201.452077	2213.483269	1.005950	0.103550	2.664211
202.201570	2224.485415	1.010954	0.103406	2.670486
202.610164	2235.543876	1.015959	0.103327	2.676718
203.275316	2246.550402	1.020964	0.103199	2.682952
203.842188	2257.564472	1.025969	0.103090	2.689158
204.286670	2268.614218	1.030973	0.103004	2.695348
204.827295	2279.620364	1.035978	0.102900	2.701516
205.491841	2290.613086	1.040983	0.102772	2.707684
206.475329	2301.600711	1.045988	0.102585	2.713890
207.226304	2312.661552	1.050992	0.102441	2.720082
208.179546	2323.676625	1.055997	0.102260	2.726270
208.713774	2334.723703	1.061002	0.102157	2.732388
209.170436	2345.763293	1.066006	0.102069	2.738476
209.866596	2356.716262	1.071011	0.101935	2.744543
210.745933	2367.747397	1.076016	0.101767	2.750671
211.565376	2378.775133	1.081021	0.101611	2.756772
212.338629	2389.817963	1.086025	0.101463	2.762861
212.967040	2400.809706	1.091030	0.101342	2.768883
213.721151	2411.858299	1.096035	0.101198	2.774944
214.267592	2422.870577	1.101039	0.101093	2.780938
214.943381	2433.893659	1.106044	0.100963	2.786945
215.671827	2444.887405	1.111049	0.100824	2.792933
216.229321	2455.955016	1.116054	0.100717	2.798918
216.734764	2466.947982	1.121058	0.100619	2.804843
217.349473	2478.000271	1.126063	0.100501	2.810804
217.739940	2489.004947	1.131068	0.100425	2.816690
218.420078	2500.002651	1.136073	0.100295	2.822608
218.805710	2511.045963	1.141077	0.100220	2.828489
219.493515	2522.065112	1.146082	0.100088	2.834394
220.030496	2533.075131	1.151087	0.099984	2.840258
220.493491	2544.122577	1.156091	0.099895	2.846116
220.718015	2555.148287	1.161096	0.099850	2.851913
221.335114	2566.122989	1.166101	0.099731	2.857734
221.783957	2577.138681	1.171106	0.099644	2.863538
222.498357	2588.177568	1.176110	0.099508	2.869385
223.019238	2599.172995	1.181115	0.099407	2.875166
223.764045	2610.219330	1.186120	0.099265	2.880997
224.602421	2621.203154	1.191125	0.099105	2.886799
225.231257	2632.266779	1.196129	0.098984	2.892597
225.598131	2643.261958	1.201134	0.098912	2.898306
226.160015	2654.313077	1.206139	0.098804	2.904064
226.666712	2665.301209	1.211143	0.098706	2.909769
227.198700	2676.351447	1.216148	0.098604	2.915499
227.576708	2687.340761	1.221153	0.098530	2.921162
228.309947	2698.366991	1.226158	0.098390	2.926888
228.762396	2709.368162	1.231162	0.098302	2.932546
229.386801	2720.401374	1.236167	0.098182	2.938236
229.804138	2731.414388	1.241172	0.098101	2.943873
230.413394	2742.462170	1.246177	0.097984	2.949546
231.023020	2753.425795	1.251181	0.097867	2.955166
231.695634	2764.490568	1.256186	0.097738	2.960835
232.478071	2775.469197	1.261191	0.097589	2.966467
233.316222	2786.504402	1.266195	0.097429	2.972124
233.793448	2797.524489	1.271200	0.097336	2.977709
234.791492	2808.513437	1.276205	0.097146	2.983346
235.459046	2819.551839	1.281210	0.097018	2.988947
236.143121	2830.599793	1.286214	0.096887	2.994544
236.577186	2841.624042	1.291219	0.096803	3.000082
237.062698	2852.629622	1.296224	0.096709	3.005607
237.447457	2863.664978	1.301228	0.096634	3.011122
238.050982	2874.642276	1.306233	0.096518	3.016631
238.733389	2885.653940	1.311238	0.096388	3.022158
239.182577	2896.723156	1.316243	0.096301	3.027669
239.829452	2907.710232	1.321247	0.096177	3.033158
240.294891	2918.757857	1.326252	0.096086	3.038641
240.788320	2929.752380	1.331257	0.095991	3.044091
241.535562	2940.765822	1.336262	0.095848	3.049578
242.233441	2951.755757	1.341266	0.095715	3.055036
243.013543	2962.808923	1.346271	0.095565	3.060527
243.707929	2973.805520	1.351276	0.095432	3.065968
244.341199	2984.858110	1.356280	0.095311	3.071417
244.637707	2995.867003	1.361285	0.095252	3.076787
245.607220	3006.845240	1.366290	0.095068	3.082230
246.242472	3017.893110	1.371295	0.094946	3.087648
246.820394	3028.926235	1.376299	0.094835	3.093041
247.075251	3039.937562	1.381304	0.094784	3.098368
247.764203	3050.953658	1.386309	0.094652	3.103750
248.448127	3061.959143	1.391314	0.094521	3.109117
249.053972	3072.990572	1.396318	0.094405	3.114476
249.570883	3084.000583	1.401323	0.094305	3.119802
250.312546	3095.025695	1.406328	0.094163	3.125158
251.093956	3106.033131	1.411332	0.094014	3.130502
251.531225	3117.072471	1.416337	0.093929	3.135804
252.008591	3128.065048	1.421342	0.093837	3.141080
252.711153	3139.091388	1.426347	0.093702	3.146394
253.301178	3150.093562	1.431351	0.093589	3.151672
253.819772	3161.127901	1.436356	0.093489	3.156946
254.402474	3172.124539	1.441361	0.093377	3.162203
255.232695	3183.181029	1.446366	0.093218	3.167513
255.938044	3194.143766	1.451370	0.093083	3.172752
256.700232	3205.218118	1.456375	0.092937	3.178043
257.072373	3216.201531	1.461380	0.092865	3.183229
257.649903	3227.256222	1.466384	0.092754	3.188468
258.031896	3238.260190	1.471389	0.092679	3.193648
258.785657	3249.258370	1.476394	0.092535	3.198867
259.389852	3260.279293	1.481399	0.092419	3.204067
260.152757	3271.322989	1.486403	0.092273	3.209291
260.591317	3282.289687	1.491408	0.092188	3.214427
261.247402	3293.350976	1.496413	0.092062	3.219628
261.651815	3304.346957	1.501417	0.091984	3.224756
262.326493	3315.384046	1.506422	0.091854	3.229931
262.830735	3326.380334	1.511427	0.091757	3.235056
263.450845	3337.398394	1.516432	0.091638	3.240199
263.957909	3348.423061	1.521436	0.091540	3.245321
264.644891	3359.435425	1.526441	0.091408	3.250452
265.329335	3370.440657	1.531446	0.091277	3.255573
265.931437	3381.471276	1.536451	0.091161	3.260685
266.419932	3392.501867	1.541455	0.091067	3.265775
267.088417	3403.504447	1.546460	0.090939	3.270867
267.580313	3414.517937	1.551465	0.090844	3.275933
268.180820	3425.536324	1.556469	0.090728	3.281008
269.010639	3436.543031	1.561474	0.090570	3.286099
269.775730	3447.584864	1.566479	0.090424	3.291189
270.335560	3458.576778	1.571484	0.090316	3.296222
270.854053	3469.609003	1.576488	0.090216	3.301261
271.508851	3480.620962	1.581493	0.090090	3.306299
272.090511	3491.658092	1.586498	0.089979	3.311332
272.663024	3502.653221	1.591503	0.089868	3.316338
273.274080	3513.675460	1.596507	0.089751	3.321352
273.766933	3524.713053	1.601512	0.089656	3.326351
274.369077	3535.712811	1.606517	0.089540	3.331339
275.011199	3546.716174	1.611521	0.089417	3.336326
275.537952	3557.754010	1.616526	0.089315	3.341306
276.119614	3568.750364	1.621531	0.089203	3.346267
276.695818	3579.784875	1.626536	0.089093	3.351237
277.089375	3590.812690	1.631540	0.089016	3.356174
277.649230	3601.824855	1.636545	0.088908	3.361117
278.234417	3612.828939	1.641550	0.088796	3.366052
278.576320	3623.873910	1.646555	0.088729	3.370968
279.092513	3634.837187	1.651559	0.088629	3.375862
279.718162	3645.873358	1.656564	0.088509	3.380794
280.347572	3656.896041	1.661569	0.088388	3.385714
281.110830	3667.908376	1.666573	0.088242	3.390638
281.550054	3678.923745	1.671578	0.088157	3.395517
282.229475	3689.952189	1.676583	0.088027	3.400423
282.959891	3700.950720	1.681588	0.087887	3.405316
283.459704	3711.993905	1.686592	0.087791	3.410192
284.019285	3722.977088	1.691597	0.087683	3.415043
284.521702	3734.016858	1.696602	0.087586	3.419904
284.988801	3745.028010	1.701606	0.087496	3.424742
285.730737	3756.043280	1.706611	0.087354	3.429607
286.454230	3767.047585	1.711616	0.087215	3.434459
287.057089	3778.095992	1.716621	0.087099	3.439308
287.540070	3789.089016	1.721625	0.087006	3.444112
288.316202	3800.116325	1.726630	0.086858	3.448959
288.926180	3811.129134	1.731635	0.086740	3.453773
289.386869	3822.150638	1.736640	0.086651	3.458565
289.841758	3833.154547	1.741644	0.086563	3.463343
290.509447	3844.169799	1.746649	0.086435	3.468145
290.879643	3855.208107	1.751654	0.086363	3.472914
291.460616	3866.214636	1.756658	0.086251	3.477688
291.960960	3877.210076	1.761663	0.086155	3.482441
292.725428	3888.250745	1.766668	0.086008	3.487237
293.189410	3899.259528	1.771673	0.085919	3.491978
293.803277	3910.279925	1.776677	0.085801	3.496735
294.361860	3921.271510	1.781682	0.085693	3.501467
295.044931	3932.331240	1.786687	0.085562	3.506236
295.620488	3943.304838	1.791692	0.085452	3.510949
296.149208	3954.349418	1.796696	0.085350	3.515680
296.642034	3965.328937	1.801701	0.085254	3.520373
297.205979	3976.393759	1.806706	0.085146	3.525103
297.625655	3987.407315	1.811710	0.085064	3.529790
298.161345	3998.410911	1.816715	0.084961	3.534479
298.796399	4009.412187	1.821720	0.084839	3.539172
299.556628	4020.434031	1.826725	0.084694	3.543881
299.940419	4031.454368	1.831729	0.084619	3.548541
300.690056	4042.465507	1.836734	0.084476	3.553232
301.280791	4053.481958	1.841739	0.084362	3.557901
301.773964	4064.512941	1.846744	0.084267	3.562558
302.277262	4075.515582	1.851748	0.084170	3.567199
302.899978	4086.528463	1.856753	0.084050	3.571852
303.168644	4097.594904	1.861758	0.083997	3.576480
304.001400	4108.582233	1.866762	0.083838	3.581133
304.688816	4119.620082	1.871767	0.083706	3.585785
305.388780	4130.645363	1.876772	0.083572	3.590426
305.636438	4141.674365	1.881777	0.083523	3.595013
306.177120	4152.676675	1.886781	0.083419	3.599615
306.791136	4163.702644	1.891786	0.083301	3.604229
307.398986	4174.711577	1.896791	0.083184	3.608829
308.031651	4185.710985	1.901795	0.083063	3.613422
308.621055	4196.751009	1.906800	0.082949	3.618021
309.139591	4207.750709	1.911805	0.082849	3.622590
309.704298	4218.789788	1.916810	0.082741	3.627174
310.172848	4229.765183	1.921814	0.082650	3.631716
310.638637	4240.822755	1.926819	0.082560	3.636285
311.002589	4251.826111	1.931824	0.082489	3.640815
311.601737	4262.849867	1.936829	0.082374	3.645373
312.055614	4273.832201	1.941833	0.082286	3.649893
312.841095	4284.868017	1.946838	0.082136	3.654464
313.430447	4295.868085	1.951843	0.082022	3.658994
314.063982	4306.917594	1.956847	0.081901	3.663543
314.492925	4317.922204	1.961852	0.081818	3.668047
315.257854	4328.929073	1.966857	0.081671	3.672581
315.711535	4339.942008	1.971862	0.081583	3.677079
316.335284	4350.960331	1.976866	0.081464	3.681591
316.824045	4361.985690	1.981871	0.081369	3.686087
317.291570	4372.989406	1.986876	0.081279	3.690566
317.901535	4384.011389	1.991881	0.081162	3.695061
318.259749	4395.028703	1.996885	0.081092	3.699523
318.734109	4406.053290	2.001890	0.081000	3.703994
