Wed Nov 23 18:09:14 2022

Number of Points = 2200
Depth (nm)	Load (µN)	Time (s)	Depth (V)	Load (V)
-2.149293	1.676728	0.000000	0.032563	0.965077
0.000000	7.454794	0.005005	0.032159	0.975076
2.143731	16.453795	0.010009	0.031754	0.989780
3.871845	27.106996	0.015014	0.031427	1.006468
5.765925	38.094947	0.020019	0.031069	1.023454
7.315303	49.313717	0.025024	0.030776	1.040307
9.156102	60.419715	0.030028	0.030428	1.056883
11.362751	71.474715	0.035033	0.030011	1.073317
13.464523	82.650511	0.040038	0.029614	1.089613
15.299681	93.855180	0.045043	0.029267	1.105574
16.862198	105.065885	0.050047	0.028971	1.121182
18.639926	116.183014	0.055052	0.028634	1.136557
19.869731	127.412287	0.060057	0.028401	1.151610
21.163785	138.555199	0.065061	0.028155	1.166389
22.695596	149.610080	0.070066	0.027865	1.180981
24.486756	160.655894	0.075071	0.027526	1.195500
25.726472	171.899600	0.080076	0.027291	1.209838
27.093107	183.005930	0.085080	0.027032	1.223898
28.404049	194.087438	0.090085	0.026783	1.237743
29.791810	205.181238	0.095090	0.026520	1.251482
31.029965	216.318016	0.100094	0.026285	1.265058
32.358132	227.398692	0.105099	0.026033	1.278461
33.392782	238.553726	0.110104	0.025836	1.291687
34.330763	249.717967	0.115109	0.025657	1.304749
35.552746	260.707547	0.120113	0.025425	1.317601
36.497567	271.820356	0.125118	0.025245	1.330353
37.475279	282.909839	0.130123	0.025059	1.342971
38.313496	293.993620	0.135128	0.024899	1.355410
39.555457	305.004338	0.140132	0.024663	1.367814
40.851171	316.091646	0.145137	0.024417	1.380208
42.212936	327.144681	0.150142	0.024159	1.392480
43.153546	338.286540	0.155146	0.023980	1.404578
44.084389	349.362523	0.160151	0.023802	1.416499
44.916966	360.455715	0.165156	0.023643	1.428302
45.739215	371.534769	0.170161	0.023486	1.439988
46.587059	382.583189	0.175165	0.023324	1.451559
47.651284	393.627435	0.180170	0.023122	1.463112
48.437557	404.713526	0.185175	0.022972	1.474516
49.391427	415.774952	0.190180	0.022790	1.485867
50.066271	426.863754	0.195184	0.022661	1.497059
50.828559	437.902038	0.200189	0.022515	1.508150
51.997399	448.915759	0.205194	0.022293	1.519276
52.917127	459.992685	0.210198	0.022117	1.530296
54.042424	471.023840	0.215203	0.021903	1.541264
55.170134	482.107831	0.220208	0.021689	1.552204
55.878304	493.189380	0.225213	0.021554	1.562923
56.839444	504.227844	0.230217	0.021370	1.573614
57.745164	515.282332	0.235222	0.021198	1.584228
58.804981	526.308269	0.240227	0.020996	1.594795
59.392352	537.450097	0.245232	0.020883	1.605244
60.372329	548.418533	0.250236	0.020697	1.615594
60.869620	559.580034	0.255241	0.020601	1.625898
61.871059	570.518422	0.260246	0.020410	1.636096
62.802622	581.580624	0.265250	0.020232	1.646320
63.764861	592.624432	0.270255	0.020049	1.656473
64.640764	603.677073	0.275260	0.019882	1.666545
65.720224	614.711247	0.280265	0.019677	1.676603
66.499959	625.786566	0.285269	0.019528	1.686544
67.570143	636.787351	0.290274	0.019324	1.696450
68.361931	647.899506	0.295279	0.019173	1.706310
69.168505	658.923551	0.300283	0.019019	1.716041
69.802169	669.992803	0.305288	0.018897	1.725704
70.537236	681.027111	0.310293	0.018756	1.735313
71.424964	692.053312	0.315298	0.018587	1.744908
72.244965	703.082353	0.320302	0.018431	1.754432
72.866056	714.174348	0.325307	0.018311	1.763898
73.473919	725.222800	0.330312	0.018194	1.773273
74.208338	736.231424	0.335317	0.018054	1.782603
75.414635	747.199726	0.340321	0.017825	1.791987
76.388242	758.276626	0.345326	0.017639	1.801343
77.103513	769.369597	0.350331	0.017502	1.810590
77.863355	780.375388	0.355335	0.017357	1.819732
78.680997	791.428623	0.360340	0.017201	1.828882
79.284056	802.478649	0.365345	0.017085	1.837923
80.374942	813.458259	0.370350	0.016878	1.847000
81.129764	824.568977	0.375354	0.016733	1.856043
81.817511	835.582481	0.380359	0.016602	1.864946
82.280447	846.665260	0.385364	0.016512	1.873800
83.258303	857.615324	0.390369	0.016326	1.882648
84.157768	868.676741	0.395373	0.016154	1.891520
84.841030	879.739803	0.400378	0.016023	1.900293
85.512457	890.763498	0.405383	0.015895	1.908992
86.400487	901.777592	0.410387	0.015725	1.917701
87.162495	912.840080	0.415392	0.015579	1.926374
88.143567	923.850865	0.420397	0.015393	1.935027
88.695395	934.917511	0.425402	0.015286	1.943570
89.325879	945.929402	0.430406	0.015165	1.952055
89.970474	957.000051	0.435411	0.015042	1.960550
90.843835	967.974424	0.440416	0.014875	1.968996
91.577081	979.044280	0.445421	0.014735	1.977441
92.326438	990.050450	0.450425	0.014591	1.985806
93.056070	1001.115853	0.455430	0.014452	1.994174
93.645622	1012.152407	0.460435	0.014338	2.002450
94.257337	1023.192820	0.465439	0.014221	2.010701
95.084069	1034.203977	0.470444	0.014063	2.018950
95.661787	1045.268074	0.475449	0.013952	2.027142
96.568234	1056.243870	0.480454	0.013779	2.035318
97.184375	1067.324460	0.485458	0.013661	2.043464
97.867783	1078.336043	0.490463	0.013530	2.051545
98.518001	1089.400063	0.495468	0.013405	2.059624
99.199412	1100.388897	0.500472	0.013274	2.067625
99.880267	1111.419624	0.505477	0.013144	2.075624
100.610854	1122.479906	0.510482	0.013004	2.083625
101.093597	1133.505611	0.515487	0.012911	2.091511
101.894667	1144.518771	0.520491	0.012758	2.099435
102.519600	1155.555718	0.525496	0.012638	2.107303
103.296782	1166.580584	0.530501	0.012489	2.115170
103.958384	1177.593123	0.535506	0.012362	2.122971
104.552207	1188.682668	0.540510	0.012248	2.130781
105.317460	1199.630532	0.545515	0.012102	2.138504
106.076011	1210.698423	0.550520	0.011957	2.146281
106.559159	1221.746946	0.555524	0.011863	2.153951
107.220166	1232.751874	0.560529	0.011737	2.161606
107.830241	1243.789168	0.565534	0.011619	2.169244
108.600309	1254.807518	0.570539	0.011472	2.176878
109.107907	1265.856567	0.575543	0.011374	2.184446
109.859560	1276.851524	0.580548	0.011230	2.192007
110.663816	1287.888353	0.585553	0.011077	2.199582
111.365842	1298.917364	0.590558	0.010942	2.207102
111.849954	1309.978941	0.595562	0.010849	2.214569
112.369213	1320.977032	0.600567	0.010749	2.221977
113.100274	1331.993826	0.605572	0.010609	2.229419
113.847633	1343.017829	0.610576	0.010466	2.236845
114.570488	1354.071308	0.615581	0.010327	2.244260
115.108773	1365.088496	0.620586	0.010224	2.251585
115.594182	1376.152294	0.625591	0.010130	2.258906
116.139894	1387.135449	0.630595	0.010025	2.266163
116.866064	1398.149642	0.635600	0.009886	2.273457
117.438515	1409.201204	0.640605	0.009776	2.280717
117.950989	1420.214256	0.645610	0.009677	2.287917
118.704621	1431.236978	0.650614	0.009533	2.295152
119.307379	1442.253640	0.655619	0.009417	2.302328
119.984071	1453.282028	0.660624	0.009287	2.309504
120.413067	1464.327673	0.665628	0.009204	2.316617
121.213903	1475.343303	0.670633	0.009051	2.323767
122.077868	1486.323953	0.675638	0.008886	2.330885
122.455361	1497.437989	0.680643	0.008812	2.337965
122.907316	1508.424461	0.685647	0.008725	2.344958
123.480278	1519.450558	0.690652	0.008615	2.351980
124.095377	1530.470530	0.695657	0.008496	2.358985
124.651039	1541.496175	0.700661	0.008389	2.365962
125.061133	1552.533818	0.705666	0.008310	2.372895
125.658903	1563.537876	0.710671	0.008195	2.379825
126.016527	1574.600709	0.715676	0.008125	2.386722
126.528795	1585.602437	0.720680	0.008026	2.393593
127.046214	1596.604041	0.725685	0.007926	2.400445
127.750370	1607.621934	0.730690	0.007792	2.407325
128.380043	1618.676929	0.735695	0.007671	2.414193
128.909472	1629.684192	0.740699	0.007569	2.420992
129.295263	1640.713123	0.745704	0.007493	2.427757
129.903654	1651.738671	0.750709	0.007377	2.434544
130.473619	1662.758471	0.755713	0.007267	2.441302
131.033523	1673.780466	0.760718	0.007159	2.448040
131.377135	1684.810832	0.765723	0.007092	2.454721
132.036888	1695.828320	0.770728	0.006965	2.461439
132.652292	1706.841310	0.775732	0.006847	2.468127
133.250080	1717.878482	0.780737	0.006732	2.474807
133.674741	1728.902388	0.785742	0.006650	2.481428
134.034413	1739.932612	0.790747	0.006580	2.488023
134.653575	1750.951918	0.795751	0.006461	2.494643
135.129088	1761.964158	0.800756	0.006369	2.501214
135.853917	1772.950644	0.805761	0.006230	2.507800
136.681534	1783.988451	0.810765	0.006072	2.514418
137.059080	1795.045025	0.815770	0.005998	2.520944
137.714484	1806.043206	0.820775	0.005873	2.527471
137.952583	1817.127772	0.825780	0.005825	2.533953
138.581443	1828.057508	0.830784	0.005705	2.540402
139.074709	1839.128968	0.835789	0.005609	2.546891
139.537474	1850.163820	0.840794	0.005520	2.553337
139.986554	1861.164741	0.845799	0.005433	2.559744
140.430902	1872.195385	0.850803	0.005347	2.566152
140.726440	1883.241744	0.855808	0.005289	2.572525
141.197147	1894.288878	0.860813	0.005197	2.578914
141.878105	1905.221529	0.865817	0.005067	2.585261
142.468599	1916.272423	0.870822	0.004953	2.591643
142.853584	1927.308849	0.875827	0.004878	2.597963
143.314696	1938.315918	0.880832	0.004789	2.604265
143.715752	1949.341229	0.885836	0.004711	2.610551
144.165011	1960.356840	0.890841	0.004624	2.616825
144.708575	1971.384402	0.895846	0.004519	2.623108
145.423876	1982.373397	0.900850	0.004383	2.629384
145.826611	1993.426642	0.905855	0.004304	2.635626
146.269054	2004.465348	0.910860	0.004218	2.641851
146.548711	2015.484647	0.915865	0.004163	2.648023
147.058808	2026.474173	0.920869	0.004065	2.654204
147.871502	2037.470093	0.925874	0.003910	2.660427
148.449717	2048.492540	0.930879	0.003798	2.666609
149.128870	2059.510434	0.935884	0.003668	2.672791
149.535808	2070.548275	0.940888	0.003589	2.678923
150.026980	2081.549311	0.945893	0.003494	2.685035
150.536968	2092.609562	0.950898	0.003396	2.691168
150.900648	2103.587236	0.955902	0.003325	2.697217
151.511700	2114.635372	0.960907	0.003207	2.703334
151.842098	2125.641900	0.965912	0.003143	2.709365
152.389910	2136.639432	0.970917	0.003037	2.715416
152.990658	2147.687161	0.975921	0.002922	2.721489
153.602971	2158.709753	0.980926	0.002804	2.727536
154.058865	2169.735929	0.985931	0.002716	2.733546
154.611358	2180.726904	0.990936	0.002609	2.739540
155.118712	2191.743991	0.995940	0.002512	2.745526
155.949987	2202.780061	1.000945	0.002353	2.751564
156.413342	2213.788546	1.005950	0.002263	2.757513
156.752993	2224.848378	1.010954	0.002197	2.763455
157.107378	2235.846614	1.015959	0.002127	2.769354
157.387310	2246.891429	1.020964	0.002072	2.775252
157.673755	2257.888907	1.025969	0.002016	2.781115
158.254005	2268.903578	1.030973	0.001904	2.787022
158.568998	2279.938362	1.035978	0.001842	2.792883
159.059173	2290.932052	1.040983	0.001748	2.798740
159.365367	2301.975625	1.045988	0.001687	2.804580
159.916582	2312.992116	1.050992	0.001581	2.810433
160.523261	2323.983304	1.055997	0.001465	2.816270
161.147545	2335.016571	1.061002	0.001345	2.822119
161.550467	2346.034525	1.066006	0.001267	2.827913
162.041903	2357.064416	1.071011	0.001172	2.833715
162.371624	2368.086677	1.076016	0.001107	2.839475
162.819232	2379.099509	1.081021	0.001020	2.845237
163.324537	2390.120420	1.086025	0.000923	2.851001
163.845168	2401.140692	1.091030	0.000822	2.856755
164.244283	2412.137914	1.096035	0.000745	2.862467
164.664015	2423.182933	1.101039	0.000663	2.868194
164.854026	2434.224705	1.106044	0.000625	2.873872
165.519045	2445.186577	1.111049	0.000497	2.879573
166.007600	2456.218420	1.116054	0.000403	2.885271
166.595630	2467.275312	1.121058	0.000290	2.890985
166.921780	2478.281742	1.126063	0.000226	2.896621
167.544449	2489.271613	1.131068	0.000106	2.902284
167.805171	2500.329539	1.136073	0.000055	2.907914
168.507511	2511.299578	1.141077	-0.000080	2.913557
168.788875	2522.365068	1.146082	-0.000135	2.919173
169.327197	2533.348906	1.151087	-0.000239	2.924775
169.716188	2544.391243	1.156091	-0.000315	2.930374
170.194095	2555.406844	1.161096	-0.000407	2.935962
170.644104	2566.417455	1.166101	-0.000494	2.941532
171.254318	2577.408896	1.171106	-0.000612	2.947106
171.737714	2588.446565	1.176110	-0.000705	2.952674
172.087732	2599.491382	1.181115	-0.000773	2.958214
172.428146	2610.502249	1.186120	-0.000840	2.963726
172.768830	2621.527610	1.191125	-0.000907	2.969234
173.075756	2632.521435	1.196129	-0.000967	2.974712
173.717097	2643.536155	1.201134	-0.001090	2.980239
173.994577	2654.584196	1.206139	-0.001145	2.985718
174.393711	2665.601510	1.211143	-0.001223	2.991191
174.617786	2676.610674	1.216148	-0.001267	2.996623
174.944273	2687.623265	1.221153	-0.001331	3.002062
175.502294	2698.622337	1.226158	-0.001439	3.007519
175.918310	2709.671251	1.231162	-0.001519	3.012969
176.441847	2720.651223	1.236167	-0.001620	3.018391
176.959263	2731.691942	1.241172	-0.001720	3.023832
177.164157	2742.732158	1.246177	-0.001761	3.029218
177.819733	2753.695990	1.251181	-0.001887	3.034622
178.378068	2764.752505	1.256186	-0.001995	3.040047
179.084549	2775.741717	1.261191	-0.002130	3.045451
179.296680	2786.838532	1.266195	-0.002173	3.050826
179.478510	2797.795868	1.271200	-0.002209	3.056121
179.889457	2808.805022	1.276205	-0.002289	3.061463
180.351497	2819.832341	1.281210	-0.002379	3.066813
180.534453	2830.872294	1.286214	-0.002416	3.072119
181.016434	2841.864253	1.291219	-0.002509	3.077435
181.329074	2852.899154	1.296224	-0.002570	3.082739
181.756092	2863.904364	1.301228	-0.002653	3.088035
182.305773	2874.896525	1.306233	-0.002759	3.093334
183.246948	2885.900949	1.311238	-0.002938	3.098683
183.935759	2896.940655	1.316243	-0.003070	3.104005
184.485321	2907.993594	1.321247	-0.003176	3.109305
184.552609	2919.010967	1.326252	-0.003191	3.114511
185.180019	2930.009701	1.331257	-0.003312	3.119777
185.519983	2941.031974	1.336262	-0.003378	3.125006
186.110534	2952.067214	1.341266	-0.003492	3.130267
186.150140	2963.092284	1.346271	-0.003502	3.135438
186.740678	2974.043864	1.351276	-0.003616	3.140641
187.046606	2985.123876	1.356280	-0.003676	3.145857
187.478580	2996.117278	1.361285	-0.003760	3.151041
187.861596	3007.126129	1.366290	-0.003834	3.156217
188.310755	3018.158309	1.371295	-0.003921	3.161405
188.881616	3029.153964	1.376299	-0.004031	3.166583
189.577175	3040.167553	1.381304	-0.004164	3.171777
189.781566	3051.224333	1.386309	-0.004205	3.176917
190.436745	3062.198945	1.391314	-0.004331	3.182071
190.830135	3073.264220	1.396318	-0.004408	3.187223
190.997677	3084.267526	1.401323	-0.004442	3.192309
191.211280	3095.297610	1.406328	-0.004485	3.197404
191.333889	3106.305858	1.411332	-0.004510	3.202469
191.758283	3117.322574	1.416337	-0.004593	3.207570
192.391053	3128.303705	1.421342	-0.004714	3.212674
192.852510	3139.324496	1.426347	-0.004803	3.217766
193.224693	3150.362994	1.431351	-0.004876	3.222845
193.353664	3161.400995	1.436356	-0.004903	3.227884
193.727602	3172.389782	1.441361	-0.004976	3.232926
194.230355	3183.403725	1.446366	-0.005073	3.237987
194.683234	3194.404253	1.451370	-0.005161	3.243028
195.389547	3205.442005	1.456375	-0.005296	3.248110
195.700238	3216.466201	1.461380	-0.005357	3.253127
195.924319	3227.488947	1.466384	-0.005402	3.258125
196.207918	3238.502737	1.471389	-0.005458	3.263118
196.385784	3249.511161	1.476394	-0.005494	3.268088
196.885176	3260.528683	1.481399	-0.005590	3.273095
197.318939	3271.527965	1.486403	-0.005674	3.278078
197.870825	3282.560946	1.491408	-0.005780	3.283084
198.235286	3293.582301	1.496413	-0.005852	3.288052
198.640162	3304.588845	1.501417	-0.005930	3.293012
199.096352	3315.609693	1.506422	-0.006019	3.297977
199.869744	3326.600860	1.511427	-0.006166	3.302961
200.283934	3337.647536	1.516432	-0.006247	3.307917
200.789772	3348.648495	1.521436	-0.006345	3.312857
201.000351	3359.704311	1.526441	-0.006387	3.317776
201.510015	3370.679907	1.531446	-0.006485	3.322690
201.697106	3381.738160	1.536451	-0.006523	3.327593
202.003936	3392.718744	1.541455	-0.006583	3.332469
202.179653	3403.767703	1.546460	-0.006619	3.337352
202.596979	3414.742011	1.551465	-0.006700	3.342225
203.156172	3425.781032	1.556469	-0.006808	3.347136
203.474496	3436.793450	1.561474	-0.006870	3.351999
203.966593	3447.800380	1.566479	-0.006965	3.356874
204.644413	3458.816614	1.571484	-0.007095	3.361768
204.936893	3469.845390	1.576488	-0.007153	3.366613
205.481807	3480.857494	1.581493	-0.007258	3.371475
205.932375	3491.860757	1.586498	-0.007345	3.376315
206.532792	3502.875677	1.591503	-0.007460	3.381170
206.782060	3513.923884	1.596507	-0.007510	3.385991
207.109695	3524.930806	1.601512	-0.007574	3.390796
207.413279	3535.932918	1.606517	-0.007634	3.395589
207.660341	3546.963026	1.611521	-0.007683	3.400381
208.316561	3557.965886	1.616526	-0.007809	3.405203
208.875416	3568.997583	1.621531	-0.007916	3.410019
208.864586	3580.016405	1.626536	-0.007917	3.414754
209.245539	3591.030415	1.631540	-0.007991	3.419528
209.729182	3602.030941	1.636545	-0.008085	3.424301
210.439188	3613.031206	1.641550	-0.008221	3.429094
210.750970	3624.088455	1.646555	-0.008282	3.433858
211.261900	3635.084278	1.651559	-0.008380	3.438612
211.557262	3646.107045	1.656564	-0.008439	3.443346
211.751654	3657.148935	1.661569	-0.008478	3.448069
211.913007	3668.148392	1.666573	-0.008511	3.452764
212.284601	3679.166836	1.671578	-0.008583	3.457485
212.328708	3690.178130	1.676583	-0.008594	3.462158
212.837658	3701.184940	1.681588	-0.008692	3.466878
212.891042	3712.226023	1.686592	-0.008705	3.471552
213.243680	3723.210242	1.691597	-0.008774	3.476230
213.749390	3734.205399	1.696602	-0.008872	3.480925
214.173591	3745.257499	1.701606	-0.008954	3.485628
214.608908	3756.251304	1.706611	-0.009038	3.490301
214.935799	3767.289896	1.711616	-0.009103	3.494974
215.306286	3778.290691	1.716621	-0.009175	3.499630
215.935241	3789.298624	1.721625	-0.009296	3.504312
216.328310	3800.336115	1.726630	-0.009372	3.508973
216.587389	3811.371279	1.731635	-0.009423	3.513611
216.783445	3822.382989	1.736640	-0.009463	3.518227
217.131795	3833.369464	1.741644	-0.009531	3.522843
217.501281	3844.412246	1.746649	-0.009603	3.527479
217.798625	3855.407500	1.751654	-0.009662	3.532081
217.951410	3866.433185	1.756658	-0.009693	3.536673
218.125550	3877.460026	1.761663	-0.009728	3.541262
218.534645	3888.464248	1.766668	-0.009808	3.545862
218.984848	3899.446340	1.771673	-0.009895	3.550451
219.264389	3910.501954	1.776677	-0.009950	3.555046
219.915271	3921.472077	1.781682	-0.010075	3.559641
220.237137	3932.528835	1.786687	-0.010138	3.564228
220.702856	3943.550822	1.791692	-0.010228	3.568812
220.922740	3954.554536	1.796696	-0.010272	3.573355
221.265393	3965.573031	1.801701	-0.010339	3.577911
221.843444	3976.562627	1.806706	-0.010451	3.582476
222.364465	3987.609531	1.811710	-0.010551	3.587052
222.636969	3998.607489	1.816715	-0.010605	3.591575
222.984933	4009.630024	1.821720	-0.010673	3.596110
223.301607	4020.642178	1.826725	-0.010735	3.600632
223.821901	4031.678657	1.831729	-0.010835	3.605180
224.226715	4042.661156	1.836734	-0.010914	3.609688
224.540267	4053.702037	1.841739	-0.010976	3.614204
224.893961	4064.716294	1.846744	-0.011045	3.618708
225.264601	4075.716952	1.851748	-0.011117	3.623202
225.631460	4086.762731	1.856753	-0.011189	3.627709
226.044278	4097.753173	1.861758	-0.011269	3.632192
226.265573	4108.842317	1.866762	-0.011313	3.636689
226.602114	4119.833518	1.871767	-0.011379	3.641154
226.943078	4130.870723	1.876772	-0.011446	3.645632
227.307638	4141.846407	1.881777	-0.011517	3.650082
227.865501	4152.880598	1.886781	-0.011624	3.654570
228.176497	4163.878515	1.891786	-0.011685	3.659013
228.419376	4174.943870	1.896791	-0.011734	3.663469
228.718301	4185.937903	1.901795	-0.011792	3.667898
229.071236	4196.956344	1.906800	-0.011861	3.672337
230.029086	4207.917598	1.911805	-0.012044	3.676810
230.354615	4218.978623	1.916810	-0.012108	3.681252
231.013928	4229.977005	1.921814	-0.012234	3.685698
231.193031	4241.006241	1.926819	-0.012270	3.690101
231.592231	4252.002395	1.931824	-0.012348	3.694508
232.155790	4263.035366	1.936829	-0.012456	3.698942
232.468023	4274.051288	1.941833	-0.012518	3.703337
232.826522	4285.083544	1.946838	-0.012588	3.707738
233.032516	4296.085835	1.951843	-0.012629	3.712107
233.273559	4307.123834	1.956847	-0.012677	3.716488
233.635186	4318.085964	1.961852	-0.012748	3.720847
234.017337	4329.151948	1.966857	-0.012822	3.725243
234.489216	4340.121551	1.971862	-0.012913	3.729605
234.711493	4351.170490	1.976866	-0.012958	3.733967
235.263843	4362.142582	1.981871	-0.013064	3.738328
235.543552	4373.203836	1.986876	-0.013119	3.742691
