Wed Nov 23 19:44:20 2022

Number of Points = 2200
Depth (nm)	Load (µN)	Time (s)	Depth (V)	Load (V)
-1.103292	1.110882	0.000000	-0.014459	1.096445
0.000000	8.086242	0.005005	-0.014667	1.106270
1.350905	17.479403	0.010009	-0.014923	1.119297
2.514346	28.274252	0.015014	-0.015144	1.133898
3.544781	39.343880	0.020019	-0.015340	1.148601
4.508270	50.464160	0.025024	-0.015524	1.163149
5.332310	61.619063	0.030028	-0.015681	1.177497
6.106577	72.725950	0.035033	-0.015829	1.191590
6.907974	83.835789	0.040038	-0.015982	1.205534
7.618445	94.976062	0.045043	-0.016118	1.219313
8.333594	106.067574	0.050047	-0.016255	1.232883
8.900834	117.202275	0.055052	-0.016365	1.246291
9.372195	128.317635	0.060057	-0.016456	1.259493
9.960994	139.382398	0.065061	-0.016569	1.272549
10.501711	150.495841	0.070066	-0.016673	1.285508
11.078940	161.571888	0.075071	-0.016784	1.298309
11.558706	172.715780	0.080076	-0.016877	1.311022
12.026524	183.752574	0.085080	-0.016968	1.323488
12.627231	194.796733	0.090085	-0.017083	1.335899
12.993477	205.928045	0.095090	-0.017154	1.348198
13.513476	216.966846	0.100094	-0.017255	1.360345
25.720329	225.218780	0.105099	-0.019547	1.373933
33.021312	238.097965	0.110104	-0.020920	1.390385
33.635755	250.056310	0.115109	-0.021039	1.403157
34.399781	261.220151	0.120113	-0.021185	1.415046
35.518318	272.242454	0.125118	-0.021397	1.426823
36.498106	283.328940	0.130123	-0.021584	1.438516
37.348660	294.432338	0.135128	-0.021746	1.450085
38.881759	305.358539	0.140132	-0.022037	1.461631
39.991126	316.503545	0.145137	-0.022248	1.473151
40.847986	327.605501	0.150142	-0.022411	1.484448
41.675247	338.697988	0.155146	-0.022569	1.495641
42.800226	349.674607	0.160151	-0.022783	1.506741
43.886988	360.751219	0.165156	-0.022990	1.517842
45.047613	371.803346	0.170161	-0.023210	1.528865
45.846822	382.916816	0.175165	-0.023363	1.539743
46.853824	393.924572	0.180170	-0.023555	1.550514
47.803880	405.029223	0.185175	-0.023736	1.561283
48.818503	416.034000	0.190180	-0.023929	1.571905
49.612009	427.154279	0.195184	-0.024080	1.582490
50.321704	438.222477	0.200189	-0.024216	1.592928
51.165482	449.210156	0.205194	-0.024377	1.603268
52.040885	460.296754	0.210198	-0.024544	1.613642
52.915239	471.341203	0.215203	-0.024711	1.623910
53.670226	482.405871	0.220208	-0.024855	1.634094
54.411221	493.454746	0.225213	-0.024997	1.644195
55.314047	504.475173	0.230217	-0.025169	1.654260
56.175761	515.513731	0.235222	-0.025334	1.664267
57.013320	526.575320	0.240227	-0.025494	1.674227
57.770005	537.642942	0.245232	-0.025638	1.684107
58.612686	548.654211	0.250236	-0.025799	1.693907
59.342866	559.733058	0.255241	-0.025939	1.703674
60.242108	570.741358	0.260246	-0.026111	1.713376
61.255575	581.764781	0.265250	-0.026303	1.723070
62.215075	592.834909	0.270255	-0.026486	1.732732
62.964066	603.902572	0.275260	-0.026629	1.742276
63.673880	614.939462	0.280265	-0.026765	1.751730
64.608981	625.950456	0.285269	-0.026944	1.761178
65.151691	637.061493	0.290274	-0.027048	1.770543
66.239063	648.010583	0.295279	-0.027255	1.779884
66.823545	659.135088	0.300283	-0.027367	1.789173
67.617623	670.127370	0.305288	-0.027519	1.798367
68.430895	681.192562	0.310293	-0.027674	1.807578
68.947221	692.252209	0.315298	-0.027774	1.816654
69.654416	703.253918	0.320302	-0.027909	1.825692
70.132002	714.345982	0.325307	-0.028002	1.834693
70.863772	725.332672	0.330312	-0.028142	1.843636
71.648328	736.379550	0.335317	-0.028292	1.852598
72.727427	747.352402	0.340321	-0.028497	1.861539
73.730482	758.415425	0.345326	-0.028688	1.870487
74.406413	769.508139	0.350331	-0.028818	1.879326
75.125313	780.515996	0.355335	-0.028955	1.888069
75.978343	791.545268	0.360340	-0.029118	1.896824
76.546935	802.634768	0.365345	-0.029227	1.905509
77.230305	813.626421	0.370350	-0.029358	1.914110
77.957363	824.666815	0.375354	-0.029497	1.922720
78.558335	835.736691	0.380359	-0.029613	1.931281
79.043053	846.762939	0.385364	-0.029707	1.939741
79.880235	857.745125	0.390369	-0.029866	1.948223
80.399617	868.823170	0.395373	-0.029967	1.956656
81.444420	879.790027	0.400378	-0.030165	1.965106
82.105241	890.887037	0.405383	-0.030292	1.973517
82.622812	901.919342	0.410387	-0.030392	1.981808
83.353963	912.921315	0.415392	-0.030532	1.990097
84.023102	923.989904	0.420397	-0.030660	1.998383
84.682399	934.990569	0.425402	-0.030787	2.006583
85.587449	946.020648	0.430406	-0.030959	2.014832
86.036346	957.112802	0.435411	-0.031046	2.022979
86.574140	968.097823	0.440416	-0.031150	2.031038
87.318131	979.132391	0.445421	-0.031292	2.039151
87.988782	990.147932	0.450425	-0.031421	2.047199
88.621254	1001.214214	0.455430	-0.031542	2.055243
89.283122	1012.207360	0.460435	-0.031669	2.063211
89.952868	1023.269028	0.465439	-0.031797	2.071198
90.667001	1034.283427	0.470444	-0.031934	2.079131
91.253031	1045.318818	0.475449	-0.032047	2.087018
92.054495	1056.358770	0.480454	-0.032200	2.094929
92.675227	1067.387716	0.485458	-0.032319	2.102760
93.321298	1078.412938	0.490463	-0.032443	2.110565
93.976891	1089.442589	0.495468	-0.032569	2.118347
94.685698	1100.454871	0.500472	-0.032705	2.126100
95.304086	1111.525930	0.505477	-0.032823	2.133843
95.863151	1122.517185	0.510482	-0.032931	2.141491
96.484587	1133.563656	0.515487	-0.033050	2.149163
97.131752	1144.597362	0.520491	-0.033175	2.156804
97.607553	1155.642929	0.525496	-0.033267	2.164387
98.152632	1166.652978	0.530501	-0.033372	2.171936
98.689023	1177.686636	0.535506	-0.033475	2.179472
99.534663	1188.661640	0.540510	-0.033636	2.187012
100.131035	1199.750463	0.545515	-0.033751	2.194546
100.552611	1210.772047	0.550520	-0.033833	2.201970
101.059089	1221.798051	0.555524	-0.033931	2.209391
101.553870	1232.812696	0.560529	-0.034026	2.216777
102.252418	1243.836379	0.565534	-0.034160	2.224188
102.912708	1254.843697	0.570539	-0.034287	2.231556
103.512776	1265.909216	0.575543	-0.034402	2.238925
104.135934	1276.912137	0.580548	-0.034522	2.246233
104.705678	1287.955888	0.585553	-0.034631	2.253532
105.089602	1298.993809	0.590558	-0.034706	2.260763
105.856597	1309.962200	0.595562	-0.034853	2.268009
106.334601	1321.062023	0.600567	-0.034945	2.275254
106.595768	1332.078322	0.605572	-0.034997	2.282376
107.108918	1343.072353	0.610576	-0.035096	2.289515
108.048001	1354.040599	0.615581	-0.035275	2.296706
109.080988	1365.076752	0.620586	-0.035471	2.303936
109.714502	1376.152053	0.625591	-0.035593	2.311085
110.177495	1387.200998	0.630595	-0.035683	2.318159
110.825936	1398.173960	0.635600	-0.035807	2.325202
111.567554	1409.213857	0.640605	-0.035949	2.332285
111.920939	1420.284755	0.645610	-0.036018	2.339285
112.513351	1431.261372	0.650614	-0.036132	2.346254
112.995967	1442.314185	0.655619	-0.036225	2.353228
113.679707	1453.310880	0.660624	-0.036356	2.360187
114.182016	1464.343641	0.665628	-0.036453	2.367111
114.570219	1475.419008	0.670633	-0.036529	2.374018
115.173487	1486.364777	0.675638	-0.036645	2.380868
115.901003	1497.412778	0.680643	-0.036784	2.387786
116.268825	1508.478048	0.685647	-0.036856	2.394622
116.899098	1519.457140	0.690652	-0.036976	2.401439
117.375144	1530.504924	0.695657	-0.037069	2.408247
117.935594	1541.519589	0.700661	-0.037176	2.415032
118.344232	1552.554309	0.705666	-0.037256	2.421780
118.774813	1563.578479	0.710671	-0.037339	2.428507
119.345641	1574.579368	0.715676	-0.037449	2.435230
119.662373	1585.638815	0.720680	-0.037511	2.441918
120.155592	1596.645485	0.725685	-0.037607	2.448592
120.643185	1607.659577	0.730690	-0.037701	2.455250
120.951538	1618.695185	0.735695	-0.037761	2.461868
121.501284	1629.694916	0.740699	-0.037867	2.468494
122.081129	1640.718385	0.745704	-0.037979	2.475121
122.470544	1651.772185	0.750709	-0.038055	2.481712
122.920386	1662.798016	0.755713	-0.038142	2.488281
123.377007	1673.809858	0.760718	-0.038230	2.494825
123.828385	1684.805410	0.765723	-0.038318	2.501341
124.259728	1695.843220	0.770728	-0.038401	2.507862
124.659967	1706.869954	0.775732	-0.038479	2.514352
125.009154	1717.901078	0.780737	-0.038547	2.520819
126.327781	1728.793844	0.785742	-0.038798	2.527371
127.492956	1739.894966	0.790747	-0.039019	2.533997
129.027244	1750.816985	0.795751	-0.039309	2.540570
129.916159	1761.937921	0.800756	-0.039479	2.547121
130.747927	1772.984101	0.805761	-0.039638	2.553601
131.420500	1783.991494	0.810765	-0.039767	2.560013
131.900761	1795.056109	0.815770	-0.039860	2.566407
132.380596	1806.069118	0.820775	-0.039952	2.572755
132.986626	1817.127354	0.825780	-0.040069	2.579136
133.601001	1828.087905	0.830784	-0.040187	2.585447
134.067243	1839.127447	0.835789	-0.040277	2.591760
134.538240	1850.149435	0.840794	-0.040368	2.598049
135.136907	1861.143451	0.845799	-0.040483	2.604329
135.358085	1872.213244	0.850803	-0.040527	2.610570
136.057505	1883.177490	0.855808	-0.040661	2.616821
136.971240	1894.205928	0.860813	-0.040836	2.623132
137.450358	1905.250383	0.865817	-0.040928	2.629359
137.874544	1916.263951	0.870822	-0.041011	2.635544
138.279679	1927.323863	0.875827	-0.041089	2.641737
138.865341	1938.293151	0.880832	-0.041202	2.647896
139.486178	1949.331489	0.885836	-0.041321	2.654086
140.069769	1960.343697	0.890841	-0.041433	2.660240
140.548753	1971.370891	0.895846	-0.041526	2.666370
141.115976	1982.414422	0.900850	-0.041635	2.672509
141.575500	1993.393351	0.905855	-0.041724	2.678581
142.256692	2004.439037	0.910860	-0.041855	2.684713
142.669973	2015.472418	0.915865	-0.041935	2.690779
143.243243	2026.464583	0.920869	-0.042045	2.696836
143.685859	2037.510124	0.925874	-0.042131	2.702885
144.017605	2048.509356	0.930879	-0.042196	2.708877
144.522385	2059.531717	0.935884	-0.042293	2.714898
145.001822	2070.511540	0.940888	-0.042386	2.720877
145.442004	2081.568700	0.945893	-0.042471	2.726879
146.045158	2092.590850	0.950898	-0.042587	2.732876
146.468759	2103.585383	0.955902	-0.042670	2.738814
147.121597	2114.585293	0.960907	-0.042795	2.744781
147.863415	2125.610927	0.965912	-0.042937	2.750763
148.377545	2136.660230	0.970917	-0.043036	2.756707
148.969423	2147.676650	0.975921	-0.043150	2.762633
149.314189	2158.699322	0.980926	-0.043217	2.768509
149.764914	2169.726434	0.985931	-0.043304	2.774392
150.279700	2180.731389	0.990936	-0.043404	2.780261
150.651744	2191.748690	0.995940	-0.043476	2.786101
151.096957	2202.816362	1.000945	-0.043563	2.791967
151.390381	2213.777951	1.005950	-0.043620	2.797741
151.839120	2224.832419	1.010954	-0.043707	2.803576
152.389968	2235.814506	1.015959	-0.043813	2.809377
152.943601	2246.853424	1.020964	-0.043920	2.815197
153.391908	2257.880917	1.025969	-0.044007	2.820981
153.889571	2268.878234	1.030973	-0.044103	2.826746
154.334589	2279.916095	1.035978	-0.044189	2.832512
154.791010	2290.921263	1.040983	-0.044278	2.838250
155.220265	2301.946084	1.045988	-0.044361	2.843983
155.739888	2312.988361	1.050992	-0.044461	2.849727
155.986653	2324.005064	1.055997	-0.044510	2.855403
156.469572	2335.004975	1.061002	-0.044603	2.861097
156.786435	2346.033669	1.066006	-0.044666	2.866768
157.403832	2357.038964	1.071011	-0.044784	2.872462
157.707307	2368.067135	1.076016	-0.044844	2.878108
158.184893	2379.089850	1.081021	-0.044936	2.883767
158.603589	2390.097819	1.086025	-0.045017	2.889398
158.934878	2401.167510	1.091030	-0.045082	2.895036
159.222358	2412.142277	1.096035	-0.045139	2.900608
159.652108	2423.165274	1.101039	-0.045222	2.906215
160.101219	2434.174886	1.106044	-0.045309	2.911808
160.483768	2445.190914	1.111049	-0.045384	2.917383
160.873524	2456.201883	1.116054	-0.045460	2.922946
161.449400	2467.249060	1.121058	-0.045571	2.928544
161.881429	2478.240019	1.126063	-0.045654	2.934082
162.429517	2489.264784	1.131068	-0.045760	2.939644
162.862523	2500.283612	1.136073	-0.045844	2.945174
163.479994	2511.310653	1.141077	-0.045962	2.950726
163.647549	2522.343668	1.146082	-0.045997	2.956203
164.066027	2533.359426	1.151087	-0.046078	2.961699
164.526083	2544.348644	1.156091	-0.046167	2.967177
164.971208	2555.384193	1.161096	-0.046253	2.972666
165.284991	2566.402551	1.166101	-0.046315	2.978117
165.630538	2577.424218	1.171106	-0.046382	2.983564
166.035656	2588.437609	1.176110	-0.046461	2.989005
166.320673	2599.485245	1.181115	-0.046517	2.994436
166.743386	2610.463735	1.186120	-0.046599	2.999843
167.084224	2621.527603	1.191125	-0.046666	3.005270
167.282616	2632.518045	1.196129	-0.046706	3.010631
167.752161	2643.527032	1.201134	-0.046797	3.016031
168.140348	2654.545085	1.206139	-0.046872	3.021413
168.647051	2665.548408	1.211143	-0.046970	3.026796
169.001141	2676.577926	1.216148	-0.047039	3.032159
169.447922	2687.599689	1.221153	-0.047126	3.037523
169.881860	2698.621173	1.226158	-0.047210	3.042875
170.206838	2709.666974	1.231162	-0.047274	3.048213
170.615554	2720.632431	1.236167	-0.047353	3.053516
170.995579	2731.690074	1.241172	-0.047427	3.058850
171.367627	2742.684574	1.246177	-0.047500	3.064142
171.724342	2753.714867	1.251181	-0.047569	3.069441
172.006834	2764.726099	1.256186	-0.047625	3.074710
172.356820	2775.772118	1.261191	-0.047694	3.079997
172.809710	2786.715269	1.266195	-0.047781	3.085240
173.327078	2797.812538	1.271200	-0.047881	3.090556
173.716775	2808.789670	1.276205	-0.047957	3.095788
174.084128	2819.815614	1.281210	-0.048029	3.101031
174.631855	2830.799445	1.286214	-0.048134	3.106270
175.272693	2841.830240	1.291219	-0.048257	3.111536
175.397019	2852.879714	1.296224	-0.048283	3.116729
175.986818	2863.875678	1.301228	-0.048397	3.121953
176.415318	2874.901274	1.306233	-0.048480	3.127160
176.983770	2885.919377	1.311238	-0.048589	3.132374
177.162599	2896.959228	1.316243	-0.048625	3.137536
177.587784	2907.955376	1.321247	-0.048708	3.142702
177.952227	2918.960901	1.326252	-0.048779	3.147857
178.353551	2930.011854	1.331257	-0.048857	3.153028
178.736355	2940.992841	1.336262	-0.048932	3.158156
179.287466	2952.012021	1.341266	-0.049038	3.163316
179.868049	2963.037795	1.346271	-0.049149	3.168475
180.229950	2974.058216	1.351276	-0.049220	3.173593
180.547022	2985.066311	1.356280	-0.049282	3.178691
180.946930	2996.107857	1.361285	-0.049360	3.183808
181.501663	3007.100789	1.366290	-0.049467	3.188914
181.743639	3018.141120	1.371295	-0.049515	3.193992
181.989350	3029.148210	1.376299	-0.049564	3.199048
182.577862	3040.154646	1.381304	-0.049677	3.204140
182.784577	3051.201021	1.386309	-0.049718	3.209192
183.285655	3062.171710	1.391314	-0.049815	3.214240
183.701018	3073.222803	1.396318	-0.049896	3.219306
184.199921	3084.226924	1.401323	-0.049992	3.224353
184.548972	3095.252571	1.406328	-0.050060	3.229382
184.874799	3106.285834	1.411332	-0.050124	3.234404
185.348738	3117.254471	1.416337	-0.050216	3.239408
185.723471	3128.303077	1.421342	-0.050289	3.244427
186.075447	3139.319368	1.426347	-0.050358	3.249421
186.493354	3150.313863	1.431351	-0.050439	3.254406
186.830069	3161.350290	1.436356	-0.050505	3.259391
187.452677	3172.346621	1.441361	-0.050624	3.264388
187.897946	3183.390823	1.446366	-0.050711	3.269375
188.285538	3194.387503	1.451370	-0.050786	3.274326
188.694987	3205.428681	1.456375	-0.050866	3.279293
189.064889	3216.434302	1.461380	-0.050938	3.284230
189.532890	3227.450760	1.466384	-0.051028	3.289178
189.945062	3238.477588	1.471389	-0.051108	3.294115
190.291266	3249.474436	1.476394	-0.051176	3.299024
190.644629	3260.502952	1.481399	-0.051245	3.303940
190.942653	3271.524978	1.486403	-0.051304	3.308838
191.215942	3282.535882	1.491408	-0.051358	3.313722
191.649819	3293.544858	1.496413	-0.051442	3.318617
192.221490	3304.567146	1.501417	-0.051552	3.323528
192.475884	3315.594006	1.506422	-0.051602	3.328394
192.802530	3326.596892	1.511427	-0.051666	3.333252
193.043983	3337.619437	1.516432	-0.051714	3.338100
193.469201	3348.629411	1.521436	-0.051797	3.342959
193.757904	3359.661965	1.526441	-0.051854	3.347803
194.089937	3370.661284	1.531446	-0.051919	3.352631
194.466594	3381.689419	1.536451	-0.051992	3.357470
194.909084	3392.672903	1.541455	-0.052078	3.362291
195.345594	3403.734815	1.546460	-0.052163	3.367138
195.554719	3414.728725	1.551465	-0.052205	3.371921
196.011400	3425.733589	1.556469	-0.052293	3.376732
196.594033	3436.762860	1.561474	-0.052405	3.381561
196.942555	3447.795473	1.566479	-0.052473	3.386357
197.392467	3458.788943	1.571484	-0.052560	3.391141
197.645606	3469.821165	1.576488	-0.052611	3.395911
198.072794	3480.816368	1.581493	-0.052693	3.400680
198.458332	3491.852115	1.586498	-0.052769	3.405454
198.672547	3502.889208	1.591503	-0.052811	3.410202
199.050756	3513.864973	1.596507	-0.052885	3.414936
199.315186	3524.910549	1.601512	-0.052938	3.419680
199.784253	3535.887961	1.606517	-0.053028	3.424412
200.438934	3546.948657	1.611521	-0.053154	3.429195
200.734174	3557.932761	1.616526	-0.053212	3.433896
201.066206	3568.972123	1.621531	-0.053277	3.438619
201.427733	3579.960599	1.626536	-0.053348	3.443317
201.929386	3591.007812	1.631540	-0.053444	3.448050
202.159947	3602.009926	1.636545	-0.053490	3.452725
202.400374	3613.042231	1.641550	-0.053538	3.457408
202.829837	3624.026723	1.646555	-0.053622	3.462086
203.165773	3635.082561	1.651559	-0.053687	3.466778
203.332865	3646.052737	1.656564	-0.053721	3.471407
204.022169	3657.098071	1.661569	-0.053853	3.476121
204.378502	3668.082331	1.666573	-0.053923	3.480766
204.648023	3679.151578	1.671578	-0.053976	3.485429
204.894641	3690.141247	1.676583	-0.054025	3.490051
205.089223	3701.162138	1.681588	-0.054065	3.494673
205.540979	3712.156288	1.686592	-0.054152	3.499308
205.781613	3723.208578	1.691597	-0.054200	3.503936
206.252326	3734.199692	1.696602	-0.054291	3.508559
206.558114	3745.248232	1.701606	-0.054351	3.513181
207.058035	3756.209265	1.706611	-0.054448	3.517782
207.559068	3767.253466	1.711616	-0.054544	3.522411
207.799039	3778.276002	1.716621	-0.054592	3.526997
208.307412	3789.294295	1.721625	-0.054690	3.531604
208.587477	3800.292878	1.726630	-0.054746	3.536172
208.919905	3811.326709	1.731635	-0.054811	3.540754
209.347163	3822.308597	1.736640	-0.054894	3.545319
209.705147	3833.361689	1.741644	-0.054963	3.549900
210.047460	3844.352138	1.746649	-0.055030	3.554448
210.575333	3855.368908	1.751654	-0.055132	3.559021
210.738670	3866.406500	1.756658	-0.055166	3.563556
211.158538	3877.452250	1.761663	-0.055247	3.568117
211.404376	3888.402214	1.766668	-0.055296	3.572614
211.751489	3899.459423	1.771673	-0.055364	3.577160
211.935888	3910.434838	1.776677	-0.055401	3.581649
212.397291	3921.487030	1.781682	-0.055490	3.586194
212.600601	3932.493224	1.786687	-0.055531	3.590686
212.891370	3943.516289	1.791692	-0.055589	3.595189
213.224024	3954.497577	1.796696	-0.055654	3.599673
213.529557	3965.562604	1.801701	-0.055714	3.604184
213.665361	3976.562349	1.806706	-0.055742	3.608643
214.073536	3987.584123	1.811710	-0.055821	3.613136
214.382997	3998.587225	1.816715	-0.055882	3.617604
214.764785	4009.588961	1.821720	-0.055956	3.622074
214.987792	4020.621724	1.826725	-0.056001	3.626534
215.680950	4031.603301	1.831729	-0.056134	3.631018
216.042848	4042.645912	1.836734	-0.056204	3.635486
216.352090	4053.678092	1.841739	-0.056265	3.639938
216.659470	4064.642570	1.846744	-0.056326	3.644357
217.332426	4075.704354	1.851748	-0.056455	3.648849
217.586267	4086.717422	1.856753	-0.056505	3.653271
218.220395	4097.750133	1.861758	-0.056627	3.657736
218.310627	4108.769101	1.866762	-0.056646	3.662132
218.829851	4119.818760	1.871767	-0.056747	3.666580
218.968975	4130.824348	1.876772	-0.056775	3.670966
219.325215	4141.859769	1.881777	-0.056845	3.675381
219.643311	4152.820963	1.886781	-0.056907	3.679757
220.059248	4163.890767	1.891786	-0.056988	3.684181
220.351902	4174.864076	1.896791	-0.057046	3.688549
220.620154	4185.910006	1.901795	-0.057099	3.692937
220.896473	4196.929987	1.906800	-0.057153	3.697311
221.208002	4207.902576	1.911805	-0.057215	3.701665
221.468293	4218.972304	1.916810	-0.057266	3.706046
221.726202	4229.955810	1.921814	-0.057317	3.710388
222.113664	4240.972243	1.926819	-0.057393	3.714751
222.263746	4252.007489	1.931824	-0.057424	3.719093
222.543159	4263.007241	1.936829	-0.057479	3.723428
222.815082	4274.028378	1.941833	-0.057532	3.727766
223.175730	4285.033356	1.946838	-0.057603	3.732101
223.557665	4296.061985	1.951843	-0.057677	3.736442
223.683662	4307.046068	1.956847	-0.057704	3.740736
224.115566	4318.112058	1.961852	-0.057787	3.745086
224.403302	4329.069966	1.966857	-0.057844	3.749376
