Wed Nov 23 17:12:02 2022

Number of Points = 2200
Depth (nm)	Load (µN)	Time (s)	Depth (V)	Load (V)
-5.208313	-0.560867	0.000000	0.053662	0.895146
0.000000	5.691556	0.005005	0.052683	0.908579
3.348740	15.126873	0.010009	0.052053	0.925802
5.865425	26.009785	0.015014	0.051578	0.944493
7.644314	37.301674	0.020019	0.051241	0.963026
9.457358	48.538799	0.025024	0.050898	0.981143
10.729062	59.833198	0.030028	0.050657	0.998719
12.069836	71.052807	0.035033	0.050402	1.015918
13.019287	82.320754	0.040038	0.050221	1.032691
13.919669	93.519691	0.045043	0.050050	1.049073
15.239780	104.577901	0.050047	0.049799	1.065221
16.880801	115.656155	0.055052	0.049488	1.081317
17.868383	126.929513	0.060057	0.049300	1.097114
19.634452	137.928117	0.065061	0.048966	1.112701
21.607587	148.909044	0.070066	0.048593	1.128149
24.313312	159.998471	0.075071	0.048083	1.143875
26.749811	171.105657	0.080076	0.047623	1.159282
28.724750	182.335086	0.085080	0.047250	1.174425
30.309372	193.559336	0.090085	0.046949	1.189190
31.855004	204.720334	0.095090	0.046657	1.203678
33.339621	215.841615	0.100094	0.046375	1.217916
34.839657	226.940718	0.105099	0.046091	1.231970
36.002545	238.111167	0.110104	0.045870	1.245802
37.437823	249.169742	0.115109	0.045598	1.259467
38.760767	260.287684	0.120113	0.045347	1.273005
40.213073	271.346946	0.125118	0.045072	1.286387
41.526901	282.517574	0.130123	0.044823	1.299699
42.733878	293.610385	0.135128	0.044593	1.312744
43.798887	304.700580	0.140132	0.044391	1.325600
44.942221	315.775294	0.145137	0.044173	1.338346
46.247394	326.786562	0.150142	0.043926	1.350965
47.522064	337.922082	0.155146	0.043684	1.363590
48.626138	349.019331	0.160151	0.043474	1.375990
49.779198	360.091777	0.165156	0.043255	1.388272
50.747495	371.183722	0.170161	0.043070	1.400395
51.883971	382.234856	0.175165	0.042854	1.412434
53.140923	393.282059	0.180170	0.042616	1.424412
54.337451	404.353794	0.185175	0.042389	1.436292
55.390330	415.456575	0.190180	0.042188	1.448053
56.561937	426.520384	0.195184	0.041966	1.459722
57.551862	437.594062	0.200189	0.041777	1.471243
58.592723	448.662576	0.205194	0.041579	1.482686
59.760202	459.683047	0.210198	0.041357	1.494038
60.769443	470.796023	0.215203	0.041165	1.505340
61.700395	481.858613	0.220208	0.040988	1.516479
62.783216	492.887639	0.225213	0.040782	1.527558
63.515058	504.026292	0.230217	0.040642	1.538540
64.474190	515.030947	0.235222	0.040459	1.549394
65.455639	526.085685	0.240227	0.040272	1.560227
66.216099	537.169186	0.245232	0.040127	1.570938
67.174057	548.186967	0.250236	0.039944	1.581580
68.089943	559.259504	0.255241	0.039770	1.592187
69.007493	570.302962	0.260246	0.039595	1.602698
69.858090	581.363452	0.265250	0.039433	1.613133
70.680382	592.459018	0.270255	0.039275	1.623523
71.499007	603.456922	0.275260	0.039119	1.633758
72.082914	614.564754	0.280265	0.039007	1.643952
72.881187	625.589266	0.285269	0.038854	1.654076
73.486842	636.636681	0.290274	0.038738	1.664098
74.431303	647.647258	0.295279	0.038558	1.674134
75.219955	658.732721	0.300283	0.038407	1.684126
75.995183	669.786245	0.305288	0.038259	1.694027
76.618615	680.827596	0.310293	0.038139	1.703813
77.426025	691.852956	0.315298	0.037985	1.713585
78.132545	702.913359	0.320302	0.037850	1.723300
79.092042	713.917049	0.325307	0.037667	1.732989
79.906578	724.980037	0.330312	0.037511	1.742630
80.684055	736.032451	0.335317	0.037363	1.752198
81.341420	747.098933	0.340321	0.037237	1.761690
81.947652	758.142946	0.345326	0.037120	1.771097
82.650546	769.153564	0.350331	0.036986	1.780454
83.784643	780.135363	0.355335	0.036770	1.789864
84.454461	791.270296	0.360340	0.036642	1.799215
85.121001	802.288901	0.365345	0.036514	1.808422
85.772399	813.336229	0.370350	0.036389	1.817601
86.697047	824.329627	0.375354	0.036213	1.826767
87.631350	835.364106	0.380359	0.036035	1.835923
88.379642	846.449384	0.385364	0.035892	1.845022
89.223917	857.464294	0.390369	0.035730	1.854046
89.957952	868.517020	0.395373	0.035590	1.863026
90.681525	879.559161	0.400378	0.035451	1.871951
91.335909	890.608600	0.405383	0.035326	1.880820
92.138957	901.610360	0.410387	0.035172	1.889651
92.836577	912.667789	0.415392	0.035039	1.898454
93.557223	923.692463	0.420397	0.034901	1.907198
94.052086	934.782774	0.425402	0.034805	1.915891
94.649661	945.767174	0.430406	0.034690	1.924492
95.423399	956.816188	0.435411	0.034542	1.933149
96.132033	967.831583	0.440416	0.034407	1.941725
96.833864	978.879994	0.445421	0.034272	1.950286
97.327282	989.922132	0.450425	0.034177	1.958751
98.180542	1000.934885	0.455430	0.034014	1.967250
98.827008	1011.986188	0.460435	0.033890	1.975687
99.596491	1022.989699	0.465439	0.033743	1.984085
100.177289	1034.069652	0.470444	0.033631	1.992455
100.727131	1045.104580	0.475449	0.033525	2.000749
101.560095	1056.091925	0.480454	0.033366	2.009045
102.290130	1067.161827	0.485458	0.033227	2.017340
103.087238	1078.173440	0.490463	0.033074	2.025576
103.721659	1089.220672	0.495468	0.032953	2.033764
104.309233	1100.267784	0.500472	0.032840	2.041907
104.836963	1111.294373	0.505477	0.032738	2.049988
105.410708	1122.330820	0.510482	0.032628	2.058055
106.025401	1133.336260	0.515487	0.032509	2.066078
106.681778	1144.382412	0.520491	0.032384	2.074109
107.170731	1155.440223	0.525496	0.032289	2.082076
107.793333	1166.441078	0.530501	0.032170	2.090005
108.473996	1177.454003	0.535506	0.032039	2.097927
108.920140	1188.505362	0.540510	0.031953	2.105789
109.756879	1199.498032	0.545515	0.031793	2.113673
110.436691	1210.545440	0.550520	0.031663	2.121529
111.338123	1221.559487	0.555524	0.031491	2.129384
112.080389	1232.600770	0.560529	0.031349	2.137192
112.676193	1243.636382	0.565534	0.031234	2.144933
113.573778	1254.639531	0.570539	0.031063	2.152694
114.164754	1265.690100	0.575543	0.030949	2.160388
114.908900	1276.724690	0.580548	0.030807	2.168079
115.563973	1287.764558	0.585553	0.030681	2.175725
116.221064	1298.772592	0.590558	0.030555	2.183324
117.040350	1309.781603	0.595562	0.030399	2.190933
117.709177	1320.840415	0.600567	0.030271	2.198515
118.342633	1331.870664	0.605572	0.030149	2.206044
119.001422	1342.891817	0.610576	0.030023	2.213547
119.452058	1353.936964	0.615581	0.029935	2.220993
120.239685	1364.912748	0.620586	0.029785	2.228443
120.826556	1375.990798	0.625591	0.029672	2.235891
121.496241	1386.980206	0.630595	0.029544	2.243275
121.980155	1398.053582	0.635600	0.029450	2.250648
122.551378	1409.080812	0.640605	0.029340	2.257985
123.089952	1420.085077	0.645610	0.029236	2.265277
123.880637	1431.077670	0.650614	0.029085	2.272592
124.597214	1442.121662	0.655619	0.028948	2.279901
125.332579	1453.132335	0.660624	0.028807	2.287168
125.788402	1464.216220	0.665628	0.028719	2.294400
126.394201	1475.184685	0.670633	0.028603	2.301566
127.271577	1486.194639	0.675638	0.028435	2.308794
128.033261	1497.237380	0.680643	0.028290	2.315996
128.891855	1508.266534	0.685647	0.028126	2.323187
129.590657	1519.304677	0.690652	0.027992	2.330328
130.084717	1530.344085	0.695657	0.027897	2.337404
130.758279	1541.359925	0.700661	0.027768	2.344482
131.188621	1552.388183	0.705666	0.027684	2.351495
132.049083	1563.380760	0.710671	0.027520	2.358554
132.684521	1574.435522	0.715676	0.027398	2.365584
133.337812	1585.456972	0.720680	0.027273	2.372576
133.761788	1596.502055	0.725685	0.027190	2.379515
134.445637	1607.484910	0.730690	0.027059	2.386448
135.182969	1618.521662	0.735695	0.026918	2.393405
135.773616	1629.565534	0.740699	0.026805	2.400316
136.454685	1640.576691	0.745704	0.026674	2.407205
137.013886	1651.621674	0.750709	0.026566	2.414070
137.491244	1662.610482	0.755713	0.026474	2.420866
138.248738	1673.617324	0.760718	0.026329	2.427708
138.779607	1684.688191	0.765723	0.026227	2.434525
139.530659	1695.690273	0.770728	0.026083	2.441325
140.073057	1706.732354	0.775732	0.025979	2.448089
140.651657	1717.734400	0.780737	0.025867	2.454817
141.345863	1728.758900	0.785742	0.025735	2.461562
141.872216	1739.794479	0.790747	0.025633	2.468263
142.491137	1750.816461	0.795751	0.025514	2.474955
142.997056	1761.842956	0.800756	0.025416	2.481610
143.545223	1772.866528	0.805761	0.025311	2.488253
144.186210	1783.893321	0.810765	0.025188	2.494898
144.963817	1794.866796	0.815770	0.025039	2.501520
145.574771	1805.937926	0.820775	0.024922	2.508150
146.090730	1816.940080	0.825780	0.024822	2.514703
146.414502	1828.003315	0.830784	0.024759	2.521239
146.905898	1839.001765	0.835789	0.024664	2.527751
147.490734	1850.036344	0.840794	0.024551	2.534285
147.875110	1861.036436	0.845799	0.024477	2.540745
148.645382	1872.042869	0.850803	0.024329	2.547264
149.142026	1883.094191	0.855808	0.024233	2.553741
149.793399	1894.090708	0.860813	0.024108	2.560198
150.225291	1905.136366	0.865817	0.024025	2.566627
150.973345	1916.165184	0.870822	0.023882	2.573088
151.501828	1927.211724	0.875827	0.023780	2.579503
152.352068	1938.168512	0.880832	0.023617	2.585909
152.700315	1949.232531	0.885836	0.023549	2.592268
153.416106	1960.212557	0.890841	0.023412	2.598631
153.904538	1971.260828	0.895846	0.023318	2.604976
154.574443	1982.280220	0.900850	0.023190	2.611321
155.067540	1993.310157	0.905855	0.023094	2.617625
155.679145	2004.311101	0.910860	0.022977	2.623919
156.109636	2015.364003	0.915865	0.022893	2.630194
156.623333	2026.357254	0.920869	0.022794	2.636435
157.267921	2037.373021	0.925874	0.022670	2.642698
158.002074	2048.376573	0.930879	0.022530	2.648954
158.219057	2059.453072	0.935884	0.022487	2.655145
158.650298	2070.420992	0.940888	0.022403	2.661299
159.606512	2081.400085	0.945893	0.022221	2.667536
160.133193	2092.472856	0.950898	0.022119	2.673736
160.826688	2103.465136	0.955902	0.021986	2.679906
161.377645	2114.512337	0.960907	0.021880	2.686066
161.722398	2125.555070	0.965912	0.021813	2.692174
162.175307	2136.542785	0.970917	0.021725	2.698257
162.906416	2147.537292	0.975921	0.021585	2.704378
163.450302	2158.594392	0.980926	0.021480	2.710486
164.093193	2169.596953	0.985931	0.021357	2.716568
164.635177	2180.647009	0.990936	0.021253	2.722645
165.166900	2191.622146	0.995940	0.021150	2.728666
165.727684	2202.689003	1.000945	0.021042	2.734728
166.351734	2213.666539	1.005950	0.020922	2.740738
167.092205	2224.698777	1.010954	0.020781	2.746785
167.502532	2235.754268	1.015959	0.020701	2.752775
168.174688	2246.713069	1.020964	0.020572	2.758744
168.840297	2257.767083	1.025969	0.020444	2.764749
169.760249	2268.762838	1.030973	0.020269	2.770753
170.518428	2279.772384	1.035978	0.020124	2.776724
171.109789	2290.836285	1.040983	0.020010	2.782682
171.671717	2301.844557	1.045988	0.019902	2.788594
172.306605	2312.872504	1.050992	0.019780	2.794516
172.740629	2323.878565	1.055997	0.019696	2.800380
173.406406	2334.903919	1.061002	0.019569	2.806280
173.986928	2345.951198	1.066006	0.019457	2.812165
174.322572	2356.937699	1.071011	0.019391	2.817966
174.968546	2367.947905	1.076016	0.019267	2.823818
175.474530	2378.998163	1.081021	0.019170	2.829655
176.095047	2389.993080	1.086025	0.019050	2.835470
176.602750	2401.040830	1.091030	0.018952	2.841282
177.245754	2412.031333	1.096035	0.018829	2.847075
177.461786	2423.095277	1.101039	0.018786	2.852825
177.850708	2434.078722	1.106044	0.018710	2.858549
178.368926	2445.097613	1.111049	0.018610	2.864301
178.991651	2456.118634	1.116054	0.018491	2.870059
179.548300	2467.137140	1.121058	0.018383	2.875793
180.066629	2478.176039	1.126063	0.018283	2.881520
180.503428	2489.191549	1.131068	0.018199	2.887211
180.931030	2500.212506	1.136073	0.018116	2.892891
181.466474	2511.205341	1.141077	0.018013	2.898563
182.089593	2522.218109	1.146082	0.017893	2.904248
182.723192	2533.258006	1.151087	0.017771	2.909937
183.069386	2544.286976	1.156091	0.017704	2.915564
183.524222	2555.301982	1.161096	0.017616	2.921190
183.977187	2566.311394	1.166101	0.017528	2.926802
184.537839	2577.315214	1.171106	0.017420	2.932417
185.163095	2588.349132	1.176110	0.017300	2.938046
185.543347	2599.352174	1.181115	0.017226	2.943611
185.937313	2610.414220	1.186120	0.017149	2.949198
186.311313	2621.417279	1.191125	0.017076	2.954741
186.955255	2632.410955	1.196129	0.016953	2.960309
187.566579	2643.437228	1.201134	0.016835	2.965879
187.914306	2654.491705	1.206139	0.016767	2.971412
188.384861	2665.484534	1.211143	0.016676	2.976923
188.695299	2676.485973	1.216148	0.016615	2.982403
189.160000	2687.531100	1.221153	0.016525	2.987918
189.715712	2698.530951	1.226158	0.016418	2.993414
190.010319	2709.571251	1.231162	0.016360	2.998881
190.511797	2720.563952	1.236167	0.016263	3.004345
191.049685	2731.586063	1.241172	0.016160	3.009819
191.424118	2742.615328	1.246177	0.016087	3.015262
191.840943	2753.632982	1.251181	0.016006	3.020696
192.445741	2764.635051	1.256186	0.015890	3.026140
192.988759	2775.655559	1.261191	0.015785	3.031574
193.479796	2786.679811	1.266195	0.015690	3.036992
193.897696	2797.710050	1.271200	0.015609	3.042393
194.382780	2808.719568	1.276205	0.015515	3.047784
195.074866	2819.730015	1.281210	0.015383	3.053195
195.632702	2830.735950	1.286214	0.015275	3.058575
195.940099	2841.767017	1.291219	0.015215	3.063922
196.736221	2852.771706	1.296224	0.015063	3.069316
197.200652	2863.804693	1.301228	0.014973	3.074667
197.793887	2874.832177	1.306233	0.014859	3.080025
198.174729	2885.822163	1.311238	0.014785	3.085325
198.809784	2896.872076	1.316243	0.014663	3.090680
199.090878	2907.888497	1.321247	0.014607	3.095960
199.512187	2918.891046	1.326252	0.014526	3.101244
199.972149	2929.927084	1.331257	0.014437	3.106540
200.497062	2940.920992	1.336262	0.014335	3.111816
201.032300	2951.946288	1.341266	0.014232	3.117100
201.459934	2962.962996	1.346271	0.014149	3.122355
202.012959	2973.989630	1.351276	0.014043	3.127623
202.355266	2985.004448	1.356280	0.013976	3.132848
203.005902	2995.997899	1.361285	0.013851	3.138096
203.577254	3007.025754	1.366290	0.013741	3.143341
204.007158	3018.070084	1.371295	0.013658	3.148565
204.459809	3029.066309	1.376299	0.013570	3.153761
204.847358	3040.105594	1.381304	0.013494	3.158959
205.265602	3051.100770	1.386309	0.013413	3.164133
205.695502	3062.139222	1.391314	0.013330	3.169319
206.080409	3073.131215	1.396318	0.013255	3.174470
206.429032	3084.166904	1.401323	0.013187	3.179627
206.980708	3095.161645	1.406328	0.013081	3.184784
207.337093	3106.215453	1.411332	0.013011	3.189934
207.792945	3117.194122	1.416337	0.012923	3.195054
208.264708	3128.250770	1.421342	0.012831	3.200204
208.881301	3139.214932	1.426347	0.012713	3.205322
209.245131	3150.290394	1.431351	0.012642	3.210449
209.490098	3161.275097	1.436356	0.012593	3.215511
210.067487	3172.274013	1.441361	0.012482	3.220615
210.462878	3183.310106	1.446366	0.012405	3.225704
211.017946	3194.325408	1.451370	0.012298	3.230796
211.368033	3205.354690	1.456375	0.012230	3.235860
211.738921	3216.361213	1.461380	0.012158	3.240908
212.471913	3227.367691	1.466384	0.012017	3.245995
213.032344	3238.392207	1.471389	0.011910	3.251060
213.486123	3249.409886	1.476394	0.011822	3.256100
213.922854	3260.447924	1.481399	0.011737	3.261139
214.387462	3271.444865	1.486403	0.011647	3.266155
214.870292	3282.463679	1.491408	0.011554	3.271175
215.283122	3293.493547	1.496413	0.011474	3.276184
215.723203	3304.494603	1.501417	0.011388	3.281175
216.329985	3315.511216	1.506422	0.011272	3.286188
216.678216	3326.542990	1.511427	0.011204	3.291166
217.221054	3337.551659	1.516432	0.011099	3.296150
217.499548	3348.568133	1.521436	0.011044	3.301098
218.080713	3359.572032	1.526441	0.010932	3.306070
218.584424	3370.601067	1.531446	0.010835	3.311036
219.026428	3381.617547	1.536451	0.010749	3.315981
219.657361	3392.619812	1.541455	0.010628	3.320937
219.972842	3403.661575	1.546460	0.010566	3.325862
220.364970	3414.677789	1.551465	0.010490	3.330779
220.771638	3425.678934	1.556469	0.010411	3.335683
221.245973	3436.698098	1.561474	0.010319	3.340597
221.778722	3447.718156	1.566479	0.010217	3.345510
222.118977	3458.736739	1.571484	0.010150	3.350392
222.422242	3469.766490	1.576488	0.010090	3.355267
222.844083	3480.774890	1.581493	0.010008	3.360140
223.351514	3491.782739	1.586498	0.009911	3.365017
223.908125	3502.815406	1.591503	0.009803	3.369902
224.126644	3513.816302	1.596507	0.009760	3.374726
224.602203	3524.834207	1.601512	0.009668	3.379581
224.663666	3535.869542	1.606517	0.009653	3.384387
225.297735	3546.848765	1.611521	0.009532	3.389230
225.787944	3557.875915	1.616526	0.009437	3.394071
226.152457	3568.921218	1.621531	0.009366	3.398896
226.721253	3579.900961	1.626536	0.009256	3.403711
227.006122	3590.952841	1.631540	0.009200	3.408516
227.316225	3601.928038	1.636545	0.009139	3.413285
227.978852	3612.956474	1.641550	0.009012	3.418111
228.531776	3623.973501	1.646555	0.008906	3.422913
229.142338	3634.994160	1.651559	0.008788	3.427716
229.475129	3646.028501	1.656564	0.008723	3.432485
229.937475	3657.043323	1.661569	0.008634	3.437255
230.416093	3668.030643	1.666573	0.008541	3.442008
230.880429	3679.069032	1.671578	0.008451	3.446774
231.388157	3690.090631	1.676583	0.008353	3.451532
231.769784	3701.103285	1.681588	0.008279	3.456264
232.204930	3712.098996	1.686592	0.008195	3.460989
232.558925	3723.141337	1.691597	0.008126	3.465717
233.109990	3734.136011	1.696602	0.008019	3.470442
233.560803	3745.165638	1.701606	0.007932	3.475164
233.941714	3756.164858	1.706611	0.007858	3.479858
234.391299	3767.215949	1.711616	0.007771	3.484575
234.597422	3778.218751	1.716621	0.007729	3.489237
235.107393	3789.217821	1.721625	0.007631	3.493927
235.656956	3800.237667	1.726630	0.007525	3.498623
236.054654	3811.271924	1.731635	0.007448	3.503302
236.414339	3822.279529	1.736640	0.007378	3.507959
236.860798	3833.267245	1.741644	0.007291	3.512611
237.279589	3844.316328	1.746649	0.007210	3.517279
237.635846	3855.323443	1.751654	0.007140	3.521917
238.123027	3866.356998	1.756658	0.007046	3.526574
238.551559	3877.363017	1.761663	0.006963	3.531206
238.833037	3888.386979	1.766668	0.006907	3.535824
239.083906	3899.380516	1.771673	0.006858	3.540419
239.586872	3910.396376	1.776677	0.006760	3.545046
240.145446	3921.411304	1.781682	0.006653	3.549672
240.635029	3932.444658	1.786687	0.006558	3.554293
241.103975	3943.437157	1.791692	0.006468	3.558888
241.423855	3954.487506	1.796696	0.006405	3.563484
241.770529	3965.507306	1.801701	0.006337	3.568064
242.123908	3976.476794	1.806706	0.006268	3.572619
242.571172	3987.528841	1.811710	0.006181	3.577212
242.991961	3998.521959	1.816715	0.006100	3.581772
243.375731	4009.550826	1.821720	0.006025	3.586337
243.654906	4020.561087	1.826725	0.005970	3.590877
244.054120	4031.576331	1.831729	0.005892	3.595426
244.633556	4042.560775	1.836734	0.005781	3.599976
245.060389	4053.627194	1.841739	0.005698	3.604537
245.540171	4064.626427	1.846744	0.005605	3.609071
245.775798	4075.655848	1.851748	0.005558	3.613585
246.347381	4086.668273	1.856753	0.005448	3.618122
246.852608	4097.681899	1.861758	0.005351	3.622647
247.336973	4108.743808	1.866762	0.005257	3.627184
247.547581	4119.753753	1.871767	0.005215	3.631664
247.919940	4130.778650	1.876772	0.005142	3.636163
248.306802	4141.774247	1.881777	0.005067	3.640645
248.881293	4152.799177	1.886781	0.004956	3.645153
249.234880	4163.805908	1.891786	0.004887	3.649625
249.695505	4174.830042	1.896791	0.004798	3.654110
250.079494	4185.833144	1.901795	0.004723	3.658573
250.747348	4196.867893	1.906800	0.004595	3.663072
251.076754	4207.904531	1.911805	0.004531	3.667531
251.459343	4218.877726	1.916810	0.004456	3.671965
251.761582	4229.934045	1.921814	0.004397	3.676419
252.188595	4240.882166	1.926819	0.004314	3.680836
252.511699	4251.968914	1.931824	0.004251	3.685293
252.931320	4262.937495	1.936829	0.004169	3.689707
253.330165	4273.964261	1.941833	0.004092	3.694137
253.774851	4284.970644	1.946838	0.004006	3.698558
254.173976	4296.023716	1.951843	0.003928	3.702987
254.509529	4307.021854	1.956847	0.003862	3.707383
254.831665	4318.032100	1.961852	0.003799	3.711777
255.179804	4329.037073	1.966857	0.003731	3.716166
255.644277	4340.050459	1.971862	0.003641	3.720566
256.044735	4351.096266	1.976866	0.003563	3.724966
256.296071	4362.076037	1.981871	0.003513	3.729319
256.612278	4373.114752	1.986876	0.003451	3.733698
257.069741	4384.118271	1.991881	0.003363	3.738071
257.639192	4395.136383	1.996885	0.003253	3.742457
258.171839	4406.169448	2.001890	0.003150	3.746839
258.593183	4417.150505	2.006895	0.003069	3.751185
