Wed Nov 23 19:25:19 2022

Number of Points = 2200
Depth (nm)	Load (µN)	Time (s)	Depth (V)	Load (V)
-1.016275	1.609682	0.000000	0.004049	1.047288
0.000000	7.967618	0.005005	0.003857	1.056693
1.165721	17.177725	0.010009	0.003636	1.070015
2.558109	27.786850	0.015014	0.003372	1.085182
3.735916	38.850695	0.020019	0.003148	1.100640
4.614343	50.044349	0.025024	0.002980	1.115908
5.500164	61.178178	0.030028	0.002811	1.130896
6.711412	72.238950	0.035033	0.002581	1.145747
7.786505	83.378192	0.040038	0.002377	1.160443
8.857661	94.479617	0.045043	0.002173	1.174905
9.807822	105.640919	0.050047	0.001992	1.189209
10.651808	116.771724	0.055052	0.001831	1.203259
11.527520	127.865642	0.060057	0.001664	1.217114
12.535507	138.946492	0.065061	0.001472	1.230856
13.519458	150.063106	0.070066	0.001285	1.244477
14.620412	161.128432	0.075071	0.001075	1.257940
15.413635	172.261659	0.080076	0.000924	1.271208
16.415963	183.326595	0.085080	0.000733	1.284347
17.428261	194.449843	0.090085	0.000540	1.297423
18.297429	205.561106	0.095090	0.000374	1.310297
19.433603	216.581678	0.100094	0.000158	1.323051
20.301464	227.690206	0.105099	-0.000007	1.335672
21.065771	238.804039	0.110104	-0.000153	1.348140
22.028703	249.837090	0.115109	-0.000337	1.360483
22.873145	260.942136	0.120113	-0.000498	1.372746
23.677824	272.027727	0.125118	-0.000652	1.384863
24.302097	283.128995	0.130123	-0.000772	1.396823
24.967653	294.193749	0.135128	-0.000899	1.408659
25.821498	305.236074	0.140132	-0.001062	1.420443
26.519110	316.319678	0.145137	-0.001196	1.432113
27.178996	327.390969	0.150142	-0.001322	1.443663
27.922246	338.445300	0.155146	-0.001465	1.455133
28.569003	349.544470	0.160151	-0.001589	1.466524
29.362461	360.553548	0.165156	-0.001740	1.477790
30.104462	371.649676	0.170161	-0.001882	1.489037
30.618217	382.726900	0.175165	-0.001981	1.500101
31.420746	393.732152	0.180170	-0.002135	1.511114
32.339760	404.772037	0.185175	-0.002310	1.522121
33.307607	415.843559	0.190180	-0.002494	1.533095
33.851630	426.968676	0.195184	-0.002599	1.543898
34.539147	437.989640	0.200189	-0.002731	1.554575
35.069319	449.063914	0.205194	-0.002833	1.565176
35.852642	460.089521	0.210198	-0.002983	1.575745
36.659665	471.140361	0.215203	-0.003137	1.586274
37.424138	482.187466	0.220208	-0.003283	1.596716
37.794211	493.309493	0.225213	-0.003355	1.607029
38.808770	504.261260	0.230217	-0.003548	1.617330
39.794380	515.300720	0.235222	-0.003736	1.627636
40.605678	526.396404	0.240227	-0.003891	1.637871
41.181402	537.454720	0.245232	-0.004002	1.647934
41.911866	548.490718	0.250236	-0.004142	1.657964
42.571067	559.532290	0.255241	-0.004268	1.667917
43.265234	570.588290	0.260246	-0.004401	1.677833
43.949438	581.635352	0.265250	-0.004532	1.687680
44.680174	592.695933	0.270255	-0.004672	1.697496
45.107303	603.760595	0.275260	-0.004755	1.707166
45.727908	614.772615	0.280265	-0.004874	1.716794
46.121347	625.871490	0.285269	-0.004951	1.726375
47.004544	636.826852	0.290274	-0.005119	1.735927
47.500107	647.926096	0.295279	-0.005215	1.745432
48.182688	658.939351	0.300283	-0.005346	1.754869
48.876271	669.977722	0.305288	-0.005478	1.764279
49.626705	681.010428	0.310293	-0.005622	1.773651
50.181439	692.093698	0.315298	-0.005729	1.782958
50.990520	703.052044	0.320302	-0.005883	1.792188
51.643242	714.169391	0.325307	-0.006009	1.801454
52.355184	725.175213	0.330312	-0.006145	1.810600
52.891814	736.253994	0.335317	-0.006248	1.819708
53.603584	747.229677	0.340321	-0.006385	1.828737
54.325931	758.308662	0.345326	-0.006523	1.837807
54.983875	769.325576	0.350331	-0.006649	1.846765
55.903975	780.359709	0.355335	-0.006824	1.855765
56.346484	791.429564	0.360340	-0.006910	1.864618
57.019630	802.450761	0.365345	-0.007039	1.873455
57.734094	813.485340	0.370350	-0.007176	1.882271
58.574180	824.505239	0.375354	-0.007336	1.891068
59.245161	835.546635	0.380359	-0.007465	1.899795
59.895661	846.591816	0.385364	-0.007590	1.908480
60.481371	857.633769	0.390369	-0.007702	1.917105
61.440298	868.628641	0.395373	-0.007885	1.925754
62.168271	879.687612	0.400378	-0.008024	1.934352
62.862079	890.730880	0.405383	-0.008157	1.942890
63.227449	901.825997	0.410387	-0.008229	1.951345
63.733751	912.796201	0.415392	-0.008326	1.959706
64.333102	923.835817	0.420397	-0.008442	1.968106
65.153727	934.837620	0.425402	-0.008598	1.976500
65.956051	945.885794	0.430406	-0.008752	1.984887
66.531575	956.945381	0.435411	-0.008862	1.993190
66.987236	967.992617	0.440416	-0.008951	2.001418
67.700489	978.984602	0.445421	-0.009087	2.009637
68.584135	990.007857	0.450425	-0.009256	2.017888
69.203776	1001.058539	0.455430	-0.009375	2.026059
69.772746	1012.113388	0.460435	-0.009484	2.034187
70.169225	1023.135399	0.465439	-0.009561	2.042216
70.907094	1034.166453	0.470444	-0.009702	2.050304
71.495986	1045.194960	0.475449	-0.009816	2.058322
72.218273	1056.221792	0.480454	-0.009954	2.066340
72.785108	1067.268955	0.485458	-0.010063	2.074303
73.233792	1078.310942	0.490463	-0.010150	2.082203
73.703406	1089.354350	0.495468	-0.010241	2.090079
74.439897	1100.331259	0.500472	-0.010382	2.097943
75.327446	1111.335394	0.505477	-0.010551	2.105832
75.842428	1122.411196	0.510482	-0.010650	2.113653
76.511362	1133.437134	0.515487	-0.010779	2.121446
77.021954	1144.480264	0.520491	-0.010877	2.129186
77.653501	1155.485033	0.525496	-0.010998	2.136899
78.265777	1166.518556	0.530501	-0.011116	2.144599
79.114525	1177.520059	0.535506	-0.011278	2.152304
79.582962	1188.610855	0.540510	-0.011369	2.159955
80.090914	1199.612868	0.545515	-0.011467	2.167527
80.539138	1210.673782	0.550520	-0.011553	2.175099
81.217571	1221.643320	0.555524	-0.011683	2.182636
81.874086	1232.683636	0.560529	-0.011809	2.190188
82.655150	1243.687781	0.565534	-0.011959	2.197718
83.384690	1254.748651	0.570539	-0.012098	2.205249
83.640419	1265.807886	0.575543	-0.012149	2.212647
84.335848	1276.792631	0.580548	-0.012282	2.220068
85.104333	1287.778937	0.585553	-0.012429	2.227482
85.867576	1298.861813	0.590558	-0.012575	2.234933
86.345493	1309.894891	0.595562	-0.012668	2.242263
86.754413	1320.942525	0.600567	-0.012747	2.249565
87.372986	1331.942845	0.605572	-0.012866	2.256857
88.035300	1342.937918	0.610576	-0.012993	2.264131
88.721348	1353.973632	0.615581	-0.013124	2.271414
89.175361	1365.030752	0.620586	-0.013212	2.278637
89.884879	1376.026028	0.625591	-0.013348	2.285851
90.254072	1387.096006	0.630595	-0.013420	2.293018
90.730128	1398.091419	0.635600	-0.013512	2.300138
91.361905	1409.103015	0.640605	-0.013633	2.307279
92.205309	1420.113628	0.645610	-0.013794	2.314441
92.982915	1431.147235	0.650614	-0.013943	2.321582
93.335461	1442.209430	0.655619	-0.014012	2.328630
93.794386	1453.237840	0.660624	-0.014101	2.335657
94.365066	1464.227736	0.665628	-0.014211	2.342662
95.192137	1475.238344	0.670633	-0.014368	2.349712
95.639360	1486.309149	0.675638	-0.014455	2.356700
96.164913	1497.329986	0.680643	-0.014556	2.363652
96.421042	1508.362529	0.685647	-0.014607	2.370536
96.998210	1519.365899	0.690652	-0.014718	2.377447
97.514013	1530.392719	0.695657	-0.014818	2.384340
98.262008	1541.382116	0.700661	-0.014961	2.391236
98.671045	1552.459801	0.705666	-0.015040	2.398099
99.318563	1563.462213	0.710671	-0.015165	2.404943
99.737659	1574.496772	0.715676	-0.015246	2.411742
100.194007	1585.504001	0.720680	-0.015334	2.418512
101.116123	1596.475475	0.725685	-0.015510	2.425334
101.660657	1607.573478	0.730690	-0.015615	2.432139
102.136188	1618.582328	0.735695	-0.015707	2.438857
102.638462	1629.602040	0.740699	-0.015804	2.445568
103.146261	1640.636868	0.745704	-0.015902	2.452270
103.768821	1651.640018	0.750709	-0.016021	2.458958
104.237214	1662.664482	0.755713	-0.016112	2.465610
104.879936	1673.691543	0.760718	-0.016235	2.472279
105.186157	1684.742242	0.765723	-0.016296	2.478879
105.699752	1695.738138	0.770728	-0.016395	2.485470
106.311612	1706.747413	0.775732	-0.016512	2.492069
106.911563	1717.797822	0.780737	-0.016628	2.498672
107.327704	1728.806170	0.785742	-0.016708	2.505198
107.745112	1739.854123	0.790747	-0.016789	2.511731
108.105696	1750.858913	0.795751	-0.016860	2.518210
108.832177	1761.864199	0.800756	-0.016999	2.524742
109.073456	1772.920081	0.805761	-0.017047	2.531195
109.670780	1783.902152	0.810765	-0.017162	2.537656
110.256232	1794.937763	0.815770	-0.017274	2.544128
110.911375	1805.944226	0.820775	-0.017400	2.550580
111.392190	1817.001900	0.825780	-0.017493	2.557013
111.878547	1828.022132	0.830784	-0.017587	2.563409
112.366782	1839.013016	0.835789	-0.017681	2.569773
112.877994	1850.140548	0.840794	-0.017780	2.576202
113.221929	1861.078738	0.845799	-0.017847	2.582478
113.777765	1872.087992	0.850803	-0.017954	2.588817
114.132555	1883.114254	0.855808	-0.018023	2.595113
114.835712	1894.127970	0.860813	-0.018158	2.601450
115.331955	1905.147931	0.865817	-0.018254	2.607738
115.805462	1916.178765	0.870822	-0.018345	2.614012
116.356318	1927.184112	0.875827	-0.018452	2.620271
117.103761	1938.197985	0.880832	-0.018595	2.626554
117.480740	1949.263138	0.885836	-0.018668	2.632785
117.852162	1960.279172	0.890841	-0.018740	2.638973
118.264044	1971.284157	0.895846	-0.018820	2.645147
118.626951	1982.335226	0.900850	-0.018891	2.651324
119.338228	1993.297870	0.905855	-0.019027	2.657498
119.587947	2004.385825	0.910860	-0.019077	2.663646
120.011621	2015.359193	0.915865	-0.019159	2.669747
120.479990	2026.402232	0.920869	-0.019250	2.675881
120.850305	2037.419960	0.925874	-0.019322	2.681969
121.509466	2048.405627	0.930879	-0.019449	2.688075
121.759381	2059.448307	0.935884	-0.019498	2.694129
122.133303	2070.451088	0.940888	-0.019571	2.700168
122.553718	2081.466627	0.945893	-0.019653	2.706208
123.102435	2092.497516	0.950898	-0.019758	2.712265
123.604902	2103.488961	0.955902	-0.019855	2.718280
124.201911	2114.518618	0.960907	-0.019970	2.724317
124.667442	2125.565377	0.965912	-0.020060	2.730328
125.270790	2136.552956	0.970917	-0.020176	2.736317
125.609017	2147.611169	0.975921	-0.020242	2.742286
126.057473	2158.614236	0.980926	-0.020329	2.748231
126.264979	2169.632635	0.985931	-0.020371	2.754131
126.818025	2180.647974	0.990936	-0.020477	2.760074
127.142060	2191.674456	0.995940	-0.020541	2.765972
127.700897	2202.719484	1.000945	-0.020648	2.771906
127.842101	2213.715528	1.005950	-0.020678	2.777732
128.656299	2224.689348	1.010954	-0.020833	2.783645
128.855412	2235.759026	1.015959	-0.020873	2.789495
129.461497	2246.771401	1.020964	-0.020990	2.795369
129.880347	2257.780519	1.025969	-0.021071	2.801199
130.534983	2268.806855	1.030973	-0.021197	2.807063
130.840433	2279.825722	1.035978	-0.021257	2.812855
131.544603	2290.834761	1.040983	-0.021392	2.818694
131.693987	2301.887038	1.045988	-0.021422	2.824453
131.986414	2312.905108	1.050992	-0.021480	2.830207
132.210675	2323.913831	1.055997	-0.021525	2.835932
132.876821	2334.915166	1.061002	-0.021652	2.841713
133.345706	2345.941719	1.066006	-0.021743	2.847463
133.960222	2356.943171	1.071011	-0.021861	2.853212
134.241942	2367.987810	1.076016	-0.021917	2.858919
134.657930	2379.008635	1.081021	-0.021998	2.864623
135.135252	2390.004908	1.086025	-0.022090	2.870313
135.693797	2401.034794	1.091030	-0.022197	2.876021
135.964067	2412.097728	1.096035	-0.022251	2.881690
136.389115	2423.069417	1.101039	-0.022333	2.887325
136.801448	2434.111974	1.106044	-0.022413	2.892983
137.168983	2445.127926	1.111049	-0.022485	2.898610
137.618527	2456.124530	1.116054	-0.022572	2.904228
138.077014	2467.169389	1.121058	-0.022661	2.909861
138.322619	2478.168762	1.126063	-0.022710	2.915428
138.647193	2489.204601	1.131068	-0.022773	2.921014
139.137799	2500.192003	1.136073	-0.022868	2.926590
139.669430	2511.227210	1.141077	-0.022971	2.932186
140.144158	2522.219356	1.146082	-0.023062	2.937741
140.716906	2533.252658	1.151087	-0.023173	2.943321
141.037077	2544.296202	1.156091	-0.023235	2.948857
141.625674	2555.287641	1.161096	-0.023349	2.954397
142.018984	2566.334318	1.166101	-0.023425	2.959924
142.702628	2577.314832	1.171106	-0.023556	2.965452
143.371139	2588.347174	1.176110	-0.023684	2.970993
143.798964	2599.391082	1.181115	-0.023767	2.976493
143.971439	2610.399438	1.186120	-0.023802	2.981927
144.395467	2621.405086	1.191125	-0.023885	2.987388
144.783084	2632.441685	1.196129	-0.023960	2.992848
145.284793	2643.437034	1.201134	-0.024057	2.998294
145.758675	2654.469642	1.206139	-0.024149	3.003745
146.198160	2665.494008	1.211143	-0.024234	3.009177
146.547462	2676.506705	1.216148	-0.024302	3.014580
147.073201	2687.514979	1.221153	-0.024404	3.019996
147.428056	2698.526405	1.226158	-0.024473	3.025380
148.080458	2709.571563	1.231162	-0.024598	3.030813
148.453320	2720.569968	1.236167	-0.024671	3.036173
148.982930	2731.590052	1.241172	-0.024773	3.041557
149.471177	2742.610750	1.246177	-0.024867	3.046926
149.840963	2753.625549	1.251181	-0.024939	3.052265
150.262409	2764.657698	1.256186	-0.025021	3.057611
150.562839	2775.678339	1.261191	-0.025080	3.062924
150.783324	2786.682005	1.266195	-0.025124	3.068209
150.919572	2797.720074	1.271200	-0.025153	3.073489
151.281700	2808.726002	1.276205	-0.025223	3.078776
151.928032	2819.730795	1.281210	-0.025347	3.084094
152.275233	2830.760195	1.286214	-0.025415	3.089372
152.713934	2841.777797	1.291219	-0.025500	3.094648
153.016660	2852.802636	1.296224	-0.025560	3.099900
153.507467	2863.804858	1.301228	-0.025654	3.105158
153.845249	2874.840226	1.306233	-0.025721	3.110401
154.260237	2885.830610	1.311238	-0.025801	3.115625
154.551044	2896.884449	1.316243	-0.025858	3.120853
155.009735	2907.863724	1.321247	-0.025947	3.126060
155.255234	2918.923126	1.326252	-0.025996	3.131267
155.767556	2929.894071	1.331257	-0.026095	3.136460
156.248013	2940.927947	1.336262	-0.026188	3.141669
156.939606	2951.923469	1.341266	-0.026320	3.146881
157.157635	2962.985827	1.346271	-0.026364	3.152050
157.382877	2973.989698	1.351276	-0.026409	3.157185
157.725278	2985.011894	1.356280	-0.026476	3.162336
158.228995	2996.022221	1.361285	-0.026573	3.167494
158.627926	3007.025406	1.366290	-0.026651	3.172627
159.086879	3018.082226	1.371295	-0.026740	3.177783
159.431644	3029.046755	1.376299	-0.026807	3.182874
160.113533	3040.086248	1.381304	-0.026938	3.188036
160.299858	3051.109818	1.386309	-0.026975	3.193116
160.972459	3062.115090	1.391314	-0.027104	3.198244
161.237831	3073.146762	1.396318	-0.027157	3.203322
161.630667	3084.178462	1.401323	-0.027233	3.208409
161.665113	3095.184370	1.406328	-0.027242	3.213429
162.284815	3106.176359	1.411332	-0.027361	3.218511
162.780267	3117.174788	1.416337	-0.027457	3.223572
163.172777	3128.246896	1.421342	-0.027534	3.228644
163.326546	3139.265564	1.426347	-0.027565	3.233654
163.725859	3150.265322	1.431351	-0.027643	3.238678
163.943953	3161.277949	1.436356	-0.027686	3.243678
164.606269	3172.266773	1.441361	-0.027813	3.248716
165.145087	3183.302545	1.446366	-0.027917	3.253751
165.513604	3194.342920	1.451370	-0.027989	3.258759
165.792187	3205.351899	1.456375	-0.028044	3.263733
166.315190	3216.364488	1.461380	-0.028145	3.268733
166.409319	3227.375300	1.466384	-0.028165	3.273669
167.013535	3238.380939	1.471389	-0.028281	3.278661
167.365979	3249.416256	1.476394	-0.028350	3.283626
167.963122	3260.452200	1.481399	-0.028465	3.288614
168.274980	3271.441968	1.486403	-0.028526	3.293539
168.683980	3282.449013	1.491408	-0.028606	3.298475
169.289946	3293.457857	1.496413	-0.028722	3.303430
169.863340	3304.504386	1.501417	-0.028833	3.308390
170.130190	3315.518556	1.506422	-0.028885	3.313290
170.613931	3326.526776	1.511427	-0.028979	3.318207
170.847876	3337.526074	1.516432	-0.029026	3.323081
171.481743	3348.559331	1.521436	-0.029147	3.328013
171.600628	3359.595048	1.526441	-0.029172	3.332875
172.175363	3370.590269	1.531446	-0.029283	3.337768
172.545857	3381.610563	1.536451	-0.029355	3.342639
173.018864	3392.645571	1.541455	-0.029447	3.347523
173.489907	3403.632597	1.546460	-0.029538	3.352378
173.985292	3414.652102	1.551465	-0.029633	3.357243
174.544551	3425.673010	1.556469	-0.029741	3.362109
174.879009	3436.725358	1.561474	-0.029806	3.366954
175.087712	3447.723404	1.566479	-0.029848	3.371754
175.488024	3458.734124	1.571484	-0.029926	3.376575
176.147010	3469.714599	1.576488	-0.030053	3.381408
176.778294	3480.755309	1.581493	-0.030174	3.386256
177.071482	3491.777990	1.586498	-0.030231	3.391048
177.468946	3502.789644	1.591503	-0.030309	3.395842
177.711342	3513.816888	1.596507	-0.030357	3.400617
178.092171	3524.835878	1.601512	-0.030431	3.405398
178.380569	3535.843277	1.606517	-0.030488	3.410156
178.832837	3546.863827	1.611521	-0.030576	3.414933
178.935809	3557.900793	1.616526	-0.030598	3.419668
179.499380	3568.875204	1.621531	-0.030706	3.424425
179.852763	3579.918490	1.626536	-0.030775	3.429179
180.305530	3590.915496	1.631540	-0.030863	3.433919
180.845212	3601.946692	1.636545	-0.030967	3.438677
181.029779	3612.962324	1.641550	-0.031004	3.443380
181.289681	3624.001866	1.646555	-0.031056	3.448096
181.679976	3634.989151	1.651559	-0.031132	3.452798
182.193989	3645.988741	1.656564	-0.031231	3.457513
182.962067	3656.993130	1.661569	-0.031378	3.462253
183.726352	3668.044725	1.666573	-0.031524	3.467006
183.884781	3679.067903	1.671578	-0.031556	3.471670
184.127227	3690.086743	1.676583	-0.031605	3.476336
184.490037	3701.069085	1.681588	-0.031675	3.480994
185.033024	3712.097583	1.686592	-0.031780	3.485686
185.474485	3723.131926	1.691597	-0.031866	3.490362
185.784345	3734.138295	1.696602	-0.031926	3.495005
186.143473	3745.152137	1.701606	-0.031996	3.499650
186.325189	3756.191107	1.706611	-0.032033	3.504280
186.832689	3767.191429	1.711616	-0.032131	3.508924
187.149266	3778.190415	1.716621	-0.032193	3.513540
187.635756	3789.233155	1.721625	-0.032287	3.518187
187.901866	3800.226599	1.726630	-0.032340	3.522783
188.168943	3811.266774	1.731635	-0.032393	3.527392
188.472385	3822.270314	1.736640	-0.032453	3.531984
189.053425	3833.285149	1.741644	-0.032564	3.536605
189.355798	3844.281299	1.746649	-0.032624	3.541182
189.787931	3855.311464	1.751654	-0.032708	3.545781
190.024436	3866.321125	1.756658	-0.032755	3.550344
190.629828	3877.321770	1.761663	-0.032871	3.554938
190.949380	3888.371510	1.766668	-0.032934	3.559514
191.436637	3899.384623	1.771673	-0.033028	3.564088
191.947952	3910.389109	1.776677	-0.033127	3.568655
192.333056	3921.438945	1.781682	-0.033202	3.573221
192.550669	3932.432748	1.786687	-0.033245	3.577740
193.039576	3943.397146	1.791692	-0.033340	3.582271
193.482140	3954.461793	1.796696	-0.033425	3.586831
194.046780	3965.463088	1.801701	-0.033534	3.591374
194.085069	3976.502450	1.806706	-0.033544	3.595868
194.366811	3987.510035	1.811710	-0.033600	3.600371
194.616455	3998.530957	1.816715	-0.033649	3.604870
194.895977	4009.547140	1.821720	-0.033704	3.609364
195.371639	4020.530630	1.826725	-0.033796	3.613861
195.970128	4031.571388	1.831729	-0.033911	3.618388
196.203020	4042.599578	1.836734	-0.033958	3.622865
196.531242	4053.590049	1.841739	-0.034022	3.627332
196.732936	4064.620059	1.846744	-0.034063	3.631795
197.365720	4075.598119	1.851748	-0.034184	3.636278
197.829812	4086.651132	1.856753	-0.034274	3.640768
198.304495	4097.696729	1.861758	-0.034366	3.645250
198.622749	4108.715673	1.866762	-0.034428	3.649699
199.056900	4119.733483	1.871767	-0.034512	3.654154
199.464845	4130.761853	1.876772	-0.034592	3.658606
199.903228	4141.793686	1.881777	-0.034677	3.663056
200.059535	4152.810639	1.886781	-0.034709	3.667466
200.413935	4163.802458	1.891786	-0.034778	3.671880
200.493524	4174.828654	1.896791	-0.034796	3.676275
201.002506	4185.808606	1.901795	-0.034894	3.680690
201.292529	4196.875084	1.906800	-0.034951	3.685112
201.714311	4207.849042	1.911805	-0.035033	3.689505
201.978478	4218.897225	1.916810	-0.035085	3.693906
202.428769	4229.878802	1.921814	-0.035172	3.698295
202.561091	4240.927179	1.926819	-0.035200	3.702672
203.105710	4251.941122	1.931824	-0.035305	3.707073
203.454045	4262.937861	1.936829	-0.035373	3.711441
203.977853	4273.942106	1.941833	-0.035474	3.715825
204.304274	4284.967958	1.946838	-0.035538	3.720192
204.439994	4296.002229	1.951843	-0.035566	3.724538
204.815269	4307.013956	1.956847	-0.035639	3.728894
205.149120	4318.013680	1.961852	-0.035705	3.733236
205.231792	4329.068046	1.966857	-0.035723	3.737569
205.480384	4340.068640	1.971862	-0.035772	3.741893
