Wed Nov 23 19:06:18 2022

Number of Points = 2200
Depth (nm)	Load (µN)	Time (s)	Depth (V)	Load (V)
-44.123867	-0.921473	0.000000	0.081756	0.796718
-20.890913	-0.185669	0.005005	0.077397	0.814068
0.000000	8.587962	0.010009	0.073475	0.843725
3.816588	22.870459	0.015014	0.072755	0.870896
5.827669	35.631631	0.020019	0.072374	0.893607
7.530107	47.450407	0.025024	0.072052	0.914039
8.741637	58.993754	0.030028	0.071822	0.933295
9.774469	70.335255	0.035033	0.071625	0.951743
10.660333	81.640640	0.040038	0.071456	0.969700
11.252338	92.935810	0.045043	0.071342	0.987151
11.905487	104.113572	0.050047	0.071217	1.004159
12.653489	115.260253	0.055052	0.071074	1.020889
13.259969	126.480862	0.060057	0.070957	1.037379
13.954913	137.606319	0.065061	0.070824	1.053522
14.495846	148.812187	0.070066	0.070720	1.069454
14.990302	159.954848	0.075071	0.070624	1.085042
15.682822	171.085648	0.080076	0.070492	1.100491
20.352770	181.229553	0.085080	0.069613	1.116361
22.563374	192.873209	0.090085	0.069195	1.132783
23.453822	204.329791	0.095090	0.069025	1.148101
24.602638	215.466675	0.100094	0.068807	1.162930
25.799912	226.563585	0.105099	0.068580	1.177543
27.124581	237.654897	0.110104	0.068328	1.192028
28.410438	248.784285	0.115109	0.068084	1.206367
29.769271	259.873379	0.120113	0.067826	1.220520
30.983554	271.024425	0.125118	0.067596	1.234520
31.936138	282.144805	0.130123	0.067414	1.248213
32.846617	293.296132	0.135128	0.067241	1.261775
34.256779	304.277954	0.140132	0.066973	1.275207
35.148045	315.450394	0.145137	0.066803	1.288499
36.380145	326.555467	0.150142	0.066570	1.301720
37.188481	337.667388	0.155146	0.066415	1.314641
38.495617	348.668312	0.160151	0.066167	1.327515
39.360706	359.818853	0.165156	0.066002	1.340251
40.481614	370.846528	0.170161	0.065789	1.352835
41.172065	382.007851	0.175165	0.065657	1.365277
42.289717	393.020654	0.180170	0.065444	1.377613
43.304428	404.106492	0.185175	0.065251	1.389877
44.080686	415.236056	0.190180	0.065103	1.401989
45.102586	426.251765	0.195184	0.064908	1.413969
46.184805	437.283496	0.200189	0.064702	1.425888
47.096301	448.432998	0.205194	0.064529	1.437765
48.170445	459.436852	0.210198	0.064324	1.449456
49.009608	470.572491	0.215203	0.064164	1.461100
49.850746	481.630597	0.220208	0.064004	1.472574
50.732361	492.649333	0.225213	0.063835	1.483934
52.182598	503.640856	0.230217	0.063561	1.495383
53.437938	514.727828	0.235222	0.063322	1.506770
54.501675	525.837212	0.240227	0.063120	1.518025
55.132855	536.956958	0.245232	0.062999	1.529055
56.142172	547.953118	0.250236	0.062807	1.540019
56.920820	559.044892	0.255241	0.062658	1.550916
58.127183	570.051421	0.260246	0.062429	1.561802
58.862853	581.165909	0.265250	0.062288	1.572554
59.599437	592.238249	0.270255	0.062147	1.583194
60.675139	603.204291	0.275260	0.061942	1.593776
61.533337	614.316290	0.280265	0.061779	1.604351
62.413040	625.346331	0.285269	0.061611	1.614789
63.237434	636.444466	0.290274	0.061453	1.625202
64.007822	647.451766	0.295279	0.061306	1.635450
65.578050	658.393751	0.300283	0.061009	1.645830
66.335404	669.585708	0.305288	0.060864	1.656110
67.207620	680.615080	0.310293	0.060697	1.666218
68.013834	691.640726	0.315298	0.060543	1.676240
69.093775	702.664954	0.320302	0.060338	1.686286
69.734667	713.792531	0.325307	0.060215	1.696227
71.026166	724.724780	0.330312	0.059970	1.706140
71.666051	735.886538	0.335317	0.059847	1.715994
72.290168	746.921681	0.340321	0.059727	1.725678
73.042844	757.934489	0.345326	0.059583	1.735327
73.842854	768.992446	0.350331	0.059430	1.744975
74.574611	780.038289	0.355335	0.059290	1.754539
75.969571	790.956128	0.360340	0.059026	1.764140
77.545180	801.977989	0.365345	0.058728	1.773828
78.661743	813.106658	0.370350	0.058515	1.783417
79.757679	824.125923	0.375354	0.058307	1.792858
81.016534	835.169912	0.380359	0.058068	1.802316
81.939020	846.245066	0.385364	0.057892	1.811653
82.910483	857.302185	0.390369	0.057707	1.820941
83.556105	868.372133	0.395373	0.057583	1.830100
84.419864	879.368246	0.400378	0.057419	1.839215
85.378143	890.408594	0.405383	0.057236	1.848346
86.598936	901.433670	0.410387	0.057004	1.857493
86.963077	912.549413	0.415392	0.056933	1.866430
88.258219	923.458913	0.420397	0.056687	1.875417
89.262511	934.540271	0.425402	0.056496	1.884416
90.318706	945.611325	0.430406	0.056295	1.893378
90.768856	956.680764	0.435411	0.056208	1.902131
91.472991	967.716123	0.440416	0.056073	1.910887
92.142108	978.751877	0.445421	0.055945	1.919593
93.076786	989.729734	0.450425	0.055767	1.928286
95.484324	1000.561449	0.455430	0.055312	1.937218
96.632415	1011.774468	0.460435	0.055094	1.946066
97.289017	1022.876801	0.465439	0.054968	1.954661
98.417802	1033.865407	0.470444	0.054754	1.963256
99.069597	1044.965937	0.475449	0.054629	1.971772
99.770982	1055.997823	0.480454	0.054494	1.980213
100.378614	1067.014548	0.485458	0.054378	1.988583
101.276520	1078.040376	0.490463	0.054206	1.996999
101.779825	1089.136338	0.495468	0.054109	2.005330
102.340220	1100.133640	0.500472	0.054001	2.013568
103.241584	1111.099929	0.505477	0.053829	2.021836
104.042942	1122.200461	0.510482	0.053676	2.030142
104.682411	1133.205179	0.515487	0.053554	2.038304
105.798788	1144.179511	0.520491	0.053341	2.046530
107.530679	1155.132272	0.525496	0.053014	2.054859
109.388538	1166.155554	0.530501	0.052662	2.063235
110.600133	1177.275468	0.535506	0.052432	2.071488
111.546121	1188.370569	0.540510	0.052252	2.079624
112.138180	1199.407202	0.545515	0.052138	2.087602
113.165794	1210.388462	0.550520	0.051943	2.095615
113.969188	1221.462485	0.555524	0.051789	2.103608
114.646034	1232.472881	0.560529	0.051659	2.111496
115.393272	1243.528836	0.565534	0.051517	2.119403
116.318820	1254.509556	0.570539	0.051340	2.127271
117.210732	1265.566194	0.575543	0.051170	2.135153
118.107152	1276.575612	0.580548	0.050999	2.142975
118.787237	1287.652914	0.585553	0.050869	2.150763
119.477487	1298.670665	0.590558	0.050736	2.158486
120.091432	1309.691205	0.595562	0.050619	2.166164
121.037087	1320.703680	0.600567	0.050438	2.173886
121.895179	1331.718718	0.605572	0.050275	2.181562
122.841558	1342.773152	0.610576	0.050094	2.189258
123.405081	1353.823785	0.615581	0.049986	2.196837
123.847647	1364.867370	0.620586	0.049900	2.204357
124.457477	1375.873448	0.625591	0.049783	2.211864
125.202300	1386.907667	0.630595	0.049640	2.219395
125.595036	1397.926386	0.635600	0.049564	2.226810
126.517549	1408.942350	0.640605	0.049388	2.234318
126.908972	1419.991058	0.645610	0.049312	2.241703
127.575879	1431.026425	0.650614	0.049184	2.249116
128.186168	1442.019707	0.655619	0.049067	2.256465
129.064341	1453.046371	0.660624	0.048899	2.263870
129.769871	1464.069650	0.665628	0.048764	2.271211
130.744884	1475.056696	0.670633	0.048579	2.278562
131.239764	1486.154020	0.675638	0.048483	2.285857
131.856587	1497.180064	0.680643	0.048365	2.293109
132.785885	1508.097183	0.685647	0.048187	2.300336
134.111112	1519.160124	0.690652	0.047936	2.307717
134.823313	1530.249809	0.695657	0.047800	2.314960
135.388032	1541.260195	0.700661	0.047691	2.322099
135.667241	1552.316476	0.705666	0.047636	2.329185
136.810451	1563.268044	0.710671	0.047419	2.336365
137.422841	1574.343794	0.715676	0.047301	2.343489
138.127107	1585.339352	0.720680	0.047166	2.350561
138.809690	1596.414939	0.725685	0.047035	2.357656
139.042166	1607.463265	0.730690	0.046989	2.364620
139.363555	1618.450494	0.735695	0.046926	2.371543
139.914465	1629.484145	0.740699	0.046820	2.378523
140.440232	1640.481274	0.745704	0.046718	2.385453
141.276353	1651.499495	0.750709	0.046559	2.392440
141.706314	1662.560231	0.755713	0.046475	2.399350
141.995378	1673.594473	0.760718	0.046418	2.406195
142.684405	1684.574290	0.765723	0.046286	2.413068
144.051980	1695.519471	0.770728	0.046027	2.420037
144.915913	1706.600244	0.775732	0.045862	2.426966
146.028783	1717.611969	0.780737	0.045651	2.433884
146.692072	1728.670909	0.785742	0.045523	2.440720
147.654690	1739.653671	0.790747	0.045340	2.447551
148.348773	1750.742249	0.795751	0.045207	2.454372
149.002703	1761.722458	0.800756	0.045082	2.461102
149.710765	1772.776492	0.805761	0.044946	2.467868
150.126229	1783.810301	0.810765	0.044865	2.474546
150.916375	1794.798137	0.815770	0.044714	2.481252
151.668714	1805.829982	0.820775	0.044571	2.487958
152.459395	1816.845155	0.825780	0.044419	2.494643
153.366371	1827.854244	0.830784	0.044247	2.501329
153.976813	1838.908400	0.835789	0.044129	2.507966
154.576998	1849.954617	0.840794	0.044014	2.514579
155.008848	1860.962622	0.845799	0.043930	2.521120
155.738686	1871.965156	0.850803	0.043791	2.527697
156.245994	1883.022380	0.855808	0.043693	2.534247
156.961089	1893.987430	0.860813	0.043556	2.540765
157.723122	1905.041843	0.865817	0.043410	2.547327
158.110167	1916.098348	0.870822	0.043335	2.553803
158.841937	1927.055105	0.875827	0.043195	2.560270
159.647313	1938.105001	0.880832	0.043041	2.566786
160.003218	1949.197386	0.885836	0.042971	2.573228
160.265244	1960.232443	0.890841	0.042919	2.579603
160.660537	1971.185603	0.895846	0.042842	2.585940
161.245617	1982.192008	0.900850	0.042730	2.592326
161.700001	1993.224681	0.905855	0.042642	2.598688
162.478276	2004.224570	0.910860	0.042493	2.605074
163.035757	2015.282198	0.915865	0.042386	2.611437
163.478190	2026.289050	0.920869	0.042300	2.617735
164.050454	2037.295047	0.925874	0.042190	2.624040
164.817183	2048.297523	0.930879	0.042043	2.630363
165.401821	2059.324108	0.935884	0.041931	2.636652
165.936146	2070.356719	0.940888	0.041828	2.642920
166.585016	2081.368789	0.945893	0.041703	2.649182
166.886887	2092.411143	0.950898	0.041644	2.655384
167.261982	2103.441218	0.955902	0.041571	2.661577
167.786546	2114.423438	0.960907	0.041470	2.667757
168.515121	2125.438206	0.965912	0.041330	2.673975
168.987462	2136.475384	0.970917	0.041239	2.680146
169.453568	2147.509939	0.975921	0.041149	2.686301
169.924896	2158.527206	0.980926	0.041058	2.692432
170.466252	2169.531487	0.985931	0.040953	2.698555
171.197917	2180.528704	0.990936	0.040813	2.704692
171.389182	2191.620089	0.995940	0.040775	2.710774
171.918746	2202.596479	1.000945	0.040673	2.716838
172.275791	2213.652513	1.005950	0.040603	2.722901
172.669872	2224.637164	1.010954	0.040526	2.728919
172.869905	2235.703642	1.015959	0.040486	2.734934
173.488590	2246.658363	1.020964	0.040367	2.740947
174.079006	2257.679924	1.025969	0.040254	2.746978
174.542433	2268.754709	1.030973	0.040164	2.753003
174.780485	2279.734318	1.035978	0.040117	2.758925
175.381553	2290.761382	1.040983	0.040001	2.764921
175.972138	2301.772485	1.045988	0.039888	2.770893
176.561600	2312.787892	1.050992	0.039774	2.776855
177.170124	2323.818809	1.055997	0.039657	2.782815
177.481588	2334.850776	1.061002	0.039596	2.788713
177.891008	2345.884188	1.066006	0.039517	2.794616
178.239200	2356.891840	1.071011	0.039448	2.800482
178.772646	2367.900893	1.076016	0.039346	2.806368
179.581797	2378.887738	1.081021	0.039191	2.812274
179.876138	2389.962245	1.086025	0.039133	2.818129
180.508384	2400.914548	1.091030	0.039012	2.823964
181.072674	2412.004130	1.096035	0.038903	2.829847
181.418994	2422.991388	1.101039	0.038835	2.835629
182.030645	2434.026841	1.106044	0.038718	2.841466
182.337059	2445.044146	1.111049	0.038658	2.847234
182.839673	2456.052439	1.116054	0.038561	2.853016
183.312227	2467.066965	1.121058	0.038469	2.858785
183.727745	2478.108593	1.126063	0.038389	2.864547
184.466921	2489.088298	1.131068	0.038247	2.870316
185.136317	2500.128912	1.136073	0.038119	2.876095
185.401067	2511.178758	1.141077	0.038066	2.881802
186.033975	2522.151629	1.146082	0.037945	2.887517
186.528042	2533.194554	1.151087	0.037850	2.893234
187.193872	2544.209628	1.156091	0.037722	2.898952
187.684402	2555.224217	1.161096	0.037627	2.904631
188.295166	2566.232100	1.166101	0.037510	2.910314
188.674949	2577.275581	1.171106	0.037436	2.915969
188.950704	2588.289339	1.176110	0.037381	2.921581
189.458701	2599.306873	1.181115	0.037283	2.927220
189.977054	2610.317029	1.186120	0.037183	2.932846
190.442418	2621.342718	1.191125	0.037093	2.938460
190.847369	2632.364234	1.196129	0.037014	2.944053
191.180145	2643.400452	1.201134	0.036949	2.949631
191.827972	2654.375863	1.206139	0.036825	2.955216
192.402514	2665.419485	1.211143	0.036714	2.960813
192.859222	2676.443889	1.216148	0.036626	2.966372
193.411243	2687.442983	1.221153	0.036520	2.971922
193.553385	2698.506237	1.226158	0.036490	2.977432
193.974474	2709.464042	1.231162	0.036409	2.982921
194.695435	2720.504798	1.236167	0.036271	2.988486
195.062139	2731.530870	1.241172	0.036199	2.993981
195.641599	2742.540663	1.246177	0.036088	2.999489
195.953219	2753.572675	1.251181	0.036026	3.004958
196.424291	2764.596830	1.256186	0.035935	3.010436
196.707736	2775.624712	1.261191	0.035879	3.015879
196.965468	2786.614092	1.266195	0.035828	3.021289
197.243693	2797.657003	1.271200	0.035773	3.026718
197.581631	2808.673261	1.276205	0.035707	3.032134
198.065263	2819.664605	1.281210	0.035614	3.037548
198.469328	2830.698013	1.286214	0.035535	3.042962
199.010504	2841.691123	1.291219	0.035431	3.048367
199.531857	2852.732886	1.296224	0.035330	3.053782
200.066256	2863.719730	1.301228	0.035227	3.059163
200.623882	2874.756535	1.306233	0.035120	3.064562
201.171754	2885.787099	1.311238	0.035014	3.069947
201.369954	2896.814934	1.316243	0.034975	3.075271
201.935782	2907.802854	1.321247	0.034866	3.080619
202.324133	2918.854127	1.326252	0.034790	3.085963
202.891005	2929.829423	1.331257	0.034681	3.091286
203.265468	2940.885299	1.336262	0.034608	3.096611
203.497625	2951.899107	1.341266	0.034562	3.101887
203.959836	2962.910446	1.346271	0.034472	3.107185
204.363996	2973.920719	1.351276	0.034394	3.112465
204.681196	2984.970563	1.356280	0.034331	3.117743
205.188401	2995.937743	1.361285	0.034234	3.122999
205.593018	3006.995928	1.366290	0.034155	3.128275
206.246734	3017.980540	1.371295	0.034029	3.133542
206.560133	3029.023470	1.376299	0.033968	3.138780
207.127827	3040.006356	1.381304	0.033859	3.144016
207.800470	3051.049283	1.386309	0.033730	3.149286
207.931526	3062.080902	1.391314	0.033702	3.154467
208.399613	3073.091417	1.396318	0.033612	3.159676
208.877939	3084.095494	1.401323	0.033519	3.164875
209.331437	3095.139532	1.406328	0.033432	3.170081
209.629102	3106.137586	1.411332	0.033373	3.175235
210.052316	3117.159532	1.416337	0.033291	3.180408
210.464928	3128.167909	1.421342	0.033211	3.185566
210.826411	3139.189892	1.426347	0.033140	3.190715
211.225152	3150.198905	1.431351	0.033063	3.195854
211.859786	3161.213606	1.436356	0.032941	3.201019
212.135059	3172.257646	1.441361	0.032886	3.206141
212.500060	3183.283365	1.446366	0.032815	3.211258
212.889328	3194.250567	1.451370	0.032739	3.216343
213.219829	3205.297577	1.456375	0.032675	3.221449
213.830192	3216.284098	1.461380	0.032557	3.226557
214.365634	3227.337023	1.466384	0.032454	3.231676
214.633531	3238.336043	1.471389	0.032401	3.236728
215.077185	3249.373110	1.476394	0.032315	3.241811
215.422271	3260.380120	1.481399	0.032248	3.246861
216.002087	3271.386498	1.486403	0.032136	3.251932
216.284250	3282.419866	1.491408	0.032081	3.256969
216.639736	3293.426027	1.496413	0.032011	3.261996
217.025554	3304.456713	1.501417	0.031936	3.267029
217.225219	3315.477230	1.506422	0.031896	3.272026
217.812847	3326.454815	1.511427	0.031783	3.277047
218.235871	3337.501876	1.516432	0.031701	3.282069
218.532394	3348.538496	1.521436	0.031642	3.287063
219.007858	3359.534039	1.526441	0.031550	3.292053
219.167163	3370.544273	1.531446	0.031518	3.297002
219.580447	3381.574892	1.536451	0.031438	3.301985
219.852970	3392.595531	1.541455	0.031384	3.306938
220.239213	3403.609677	1.546460	0.031308	3.311895
220.343927	3414.626762	1.551465	0.031286	3.316811
220.697085	3425.633945	1.556469	0.031217	3.321746
220.902204	3436.678076	1.561474	0.031176	3.326671
221.266298	3447.652751	1.566479	0.031105	3.331578
221.587508	3458.677318	1.571484	0.031042	3.336495
222.652745	3469.654156	1.576488	0.030839	3.341476
223.250785	3480.709789	1.581493	0.030724	3.346426
223.686374	3491.741033	1.586498	0.030640	3.351337
224.288040	3502.718543	1.591503	0.030524	3.356238
224.768298	3513.765447	1.596507	0.030431	3.361148
225.030773	3524.805544	1.601512	0.030379	3.366020
225.260485	3535.830439	1.606517	0.030334	3.370874
225.454334	3546.795770	1.611521	0.030294	3.375691
225.973021	3557.829550	1.616526	0.030194	3.380571
226.617015	3568.832421	1.621531	0.030071	3.385445
227.348906	3579.845798	1.626536	0.029931	3.390328
227.361534	3590.905437	1.631540	0.029926	3.395136
227.797605	3601.896824	1.636545	0.029841	3.399959
228.106559	3612.910220	1.641550	0.029780	3.404769
228.415496	3623.936607	1.646555	0.029720	3.409578
228.577312	3634.964961	1.651559	0.029687	3.414363
228.861807	3645.984886	1.656564	0.029631	3.419152
229.004730	3656.988180	1.661569	0.029601	3.423911
229.307697	3668.007417	1.666573	0.029541	3.428689
229.793445	3679.000977	1.671578	0.029448	3.433471
230.334770	3690.018930	1.676583	0.029343	3.438263
230.800981	3701.032774	1.681588	0.029253	3.443038
231.489564	3712.063545	1.686592	0.029121	3.447839
231.860814	3723.062178	1.691597	0.029049	3.452583
232.293285	3734.112082	1.696602	0.028965	3.457349
232.718665	3745.087959	1.701606	0.028882	3.462076
233.165558	3756.132775	1.706611	0.028796	3.466828
233.353202	3767.141846	1.711616	0.028758	3.471528
233.860129	3778.171605	1.716621	0.028660	3.476268
234.150499	3789.162194	1.721625	0.028603	3.480960
234.557257	3800.203822	1.726630	0.028524	3.485680
234.919998	3811.198222	1.731635	0.028453	3.490368
235.393580	3822.212146	1.736640	0.028361	3.495072
236.025393	3833.235814	1.741644	0.028240	3.499791
236.197480	3844.281994	1.746649	0.028205	3.504460
236.406356	3855.267611	1.751654	0.028163	3.509102
236.814687	3866.288669	1.756658	0.028084	3.513775
237.160533	3877.310530	1.761663	0.028016	3.518436
237.655847	3888.325252	1.766668	0.027920	3.523104
238.062372	3899.336626	1.771673	0.027841	3.527754
238.453114	3910.358969	1.776677	0.027765	3.532401
238.887855	3921.363262	1.781682	0.027681	3.537039
239.327973	3932.371192	1.786687	0.027596	3.541673
239.469369	3943.417839	1.791692	0.027566	3.546283
239.742330	3954.431331	1.796696	0.027513	3.550888
240.131445	3965.426445	1.801701	0.027437	3.555493
240.563382	3976.447224	1.806706	0.027353	3.560107
241.001854	3987.451486	1.811710	0.027268	3.564709
241.438480	3998.475407	1.816715	0.027183	3.569312
241.695761	4009.500956	1.821720	0.027132	3.573891
242.045736	4020.506839	1.826725	0.027064	3.578465
242.392967	4031.533178	1.831729	0.026996	3.583042
242.775448	4042.551549	1.836734	0.026922	3.587614
243.088555	4053.559561	1.841739	0.026860	3.592168
243.392884	4064.581132	1.846744	0.026800	3.596720
243.831670	4075.584004	1.851748	0.026715	3.601274
244.205016	4086.609535	1.856753	0.026642	3.605824
244.518276	4097.650087	1.861758	0.026581	3.610368
244.777409	4108.700897	1.866762	0.026530	3.614904
245.099237	4119.700040	1.871767	0.026466	3.619420
245.284136	4130.739695	1.876772	0.026429	3.623932
245.420338	4141.743967	1.881777	0.026401	3.628419
245.691887	4152.762963	1.886781	0.026347	3.632921
246.015028	4163.752897	1.891786	0.026284	3.637411
246.659006	4174.778104	1.896791	0.026160	3.641944
247.095169	4185.788469	1.901795	0.026076	3.646444
247.157478	4196.818149	1.906800	0.026061	3.650905
247.546953	4207.836087	1.911805	0.025985	3.655391
247.970651	4218.835612	1.916810	0.025903	3.659868
248.207764	4229.867141	1.921814	0.025856	3.664332
248.625535	4240.866293	1.926819	0.025775	3.668796
248.693312	4251.919964	1.931824	0.025759	3.673241
248.990697	4262.913474	1.936829	0.025701	3.677680
249.284283	4273.919969	1.941833	0.025643	3.682118
249.861399	4284.923427	1.946838	0.025532	3.686579
250.136801	4295.948625	1.951843	0.025478	3.691012
250.647416	4306.971949	1.956847	0.025379	3.695463
250.910523	4317.985935	1.961852	0.025327	3.699880
251.298526	4328.996389	1.966857	0.025251	3.704302
251.474971	4340.019751	1.971862	0.025216	3.708703
252.019334	4351.010822	1.976866	0.025111	3.713123
252.476915	4362.053820	1.981871	0.025022	3.717550
253.100890	4373.087617	1.986876	0.024902	3.721985
253.256280	4384.079984	1.991881	0.024870	3.726350
253.630618	4395.063343	1.996885	0.024797	3.730728
253.928976	4406.107330	2.001890	0.024739	3.735118
254.439219	4417.127140	2.006895	0.024640	3.739514
