Wed Nov 23 19:06:18 2022

Number of Points = 2200
Depth (nm)	Load (µN)	Time (s)	Depth (V)	Load (V)
-0.877646	1.579287	0.000000	0.017664	1.008867
0.000000	7.822944	0.005005	0.017498	1.018406
1.129929	16.944681	0.010009	0.017283	1.032104
1.816461	27.671944	0.015014	0.017152	1.047649
2.445068	38.717069	0.020019	0.017031	1.063377
3.117541	49.834892	0.025024	0.016902	1.078996
3.691537	60.991727	0.030028	0.016792	1.094396
4.374491	72.105880	0.035033	0.016661	1.109577
4.816666	83.278584	0.040038	0.016575	1.124515
5.187651	94.438771	0.045043	0.016503	1.139205
5.635055	105.529774	0.050047	0.016416	1.153657
6.117385	116.646659	0.055052	0.016323	1.167977
6.614072	127.753772	0.060057	0.016227	1.182119
7.057607	138.866013	0.065061	0.016141	1.196075
13.190863	148.503579	0.070066	0.014988	1.210611
17.490478	160.319390	0.075071	0.014178	1.226780
19.141357	171.807814	0.080076	0.013865	1.241199
20.121219	183.124499	0.085080	0.013679	1.254963
21.861655	194.098796	0.090085	0.013349	1.268502
23.014584	205.334306	0.095090	0.013130	1.281950
24.123503	216.414766	0.100094	0.012919	1.295064
24.901823	227.641309	0.105099	0.012771	1.308074
26.339724	238.520304	0.110104	0.012498	1.320836
27.731451	249.617578	0.115109	0.012234	1.333697
28.786579	260.773765	0.120113	0.012033	1.346365
29.696048	271.868393	0.125118	0.011860	1.358790
30.960682	282.895862	0.130123	0.011620	1.371169
32.191953	293.979850	0.135128	0.011386	1.383483
33.286672	305.044558	0.140132	0.011178	1.395615
34.274839	316.180123	0.145137	0.010990	1.407676
35.457845	327.204886	0.150142	0.010765	1.419592
36.275419	338.329644	0.155146	0.010609	1.431375
37.038166	349.414231	0.160151	0.010463	1.443000
37.881940	360.464044	0.165156	0.010302	1.454526
39.132272	371.460312	0.170161	0.010065	1.466055
40.133829	382.549937	0.175165	0.009874	1.477496
41.430938	393.574283	0.180170	0.009628	1.488890
42.210048	404.743995	0.185175	0.009479	1.500156
43.538400	415.657136	0.190180	0.009227	1.511280
44.484717	426.832775	0.195184	0.009047	1.522444
45.511988	437.864441	0.200189	0.008851	1.533415
46.228277	448.978717	0.205194	0.008714	1.544280
47.562705	459.924412	0.210198	0.008461	1.555119
48.524195	471.055492	0.215203	0.008278	1.565931
49.603680	482.051197	0.220208	0.008072	1.576581
50.676819	493.149367	0.225213	0.007868	1.587252
51.636139	504.213056	0.230217	0.007686	1.597782
52.503781	515.261116	0.235222	0.007520	1.608198
53.340177	526.348910	0.240227	0.007360	1.618573
54.272482	537.356740	0.245232	0.007183	1.628840
55.063819	548.416842	0.250236	0.007032	1.639044
55.910732	559.474015	0.255241	0.006870	1.649200
56.824307	570.502569	0.260246	0.006696	1.659288
57.744633	581.557552	0.265250	0.006520	1.669341
58.566670	592.619666	0.270255	0.006363	1.679309
59.453168	603.652382	0.275260	0.006194	1.689211
60.200916	614.730370	0.280265	0.006051	1.699052
61.124541	625.728431	0.285269	0.005875	1.708821
61.770853	636.837068	0.290274	0.005751	1.718545
62.546429	647.835532	0.295279	0.005603	1.728159
63.421824	658.881483	0.300283	0.005436	1.737789
64.128207	669.957114	0.305288	0.005301	1.747340
65.101753	680.947908	0.310293	0.005115	1.756847
65.770738	692.037276	0.315298	0.004987	1.766295
66.383509	703.090048	0.320302	0.004869	1.775646
67.331145	714.054250	0.325307	0.004689	1.784972
68.472990	725.075158	0.330312	0.004472	1.794351
69.195121	736.209625	0.335317	0.004333	1.803653
70.024789	747.207584	0.340321	0.004175	1.812827
70.846820	758.256882	0.345326	0.004018	1.821994
71.499608	769.319217	0.350331	0.003893	1.831077
72.111427	780.357605	0.355335	0.003775	1.840085
72.678165	791.416055	0.360340	0.003666	1.849051
73.617453	802.385245	0.365345	0.003487	1.858007
74.426593	813.444271	0.370350	0.003333	1.866954
75.010669	824.521927	0.375354	0.003220	1.875812
75.745900	835.528181	0.380359	0.003080	1.884612
76.171278	846.612150	0.385364	0.002997	1.893348
77.119623	857.563200	0.390369	0.002816	1.902082
78.043486	868.609542	0.395373	0.002640	1.910842
78.933068	879.661208	0.400378	0.002471	1.919557
79.694549	890.690288	0.405383	0.002325	1.928180
80.942816	901.687317	0.410387	0.002088	1.936869
81.351664	912.819431	0.415392	0.002009	1.945401
82.109375	923.805036	0.420397	0.001864	1.953876
82.719999	934.852050	0.425402	0.001746	1.962322
83.430933	945.877724	0.430406	0.001610	1.970741
83.965432	956.941048	0.435411	0.001507	1.979107
84.621314	967.938867	0.440416	0.001381	1.987420
85.310766	978.990575	0.445421	0.001249	1.995747
86.335993	989.960421	0.450425	0.001054	2.004063
86.975591	1001.046469	0.455430	0.000932	2.012332
87.744406	1012.090791	0.460435	0.000785	2.020570
88.265204	1023.120545	0.465439	0.000684	2.028701
89.022162	1034.138817	0.470444	0.000539	2.036850
89.656889	1045.201186	0.475449	0.000417	2.044967
90.485821	1056.189884	0.480454	0.000259	2.053047
91.227993	1067.240952	0.485458	0.000117	2.061119
91.673193	1078.305554	0.490463	0.000031	2.069096
92.313764	1089.299950	0.495468	-0.000092	2.077039
93.093065	1100.315360	0.500472	-0.000241	2.085001
93.690272	1111.406036	0.505477	-0.000356	2.092941
94.247851	1122.409688	0.510482	-0.000463	2.100780
94.872373	1133.423076	0.515487	-0.000583	2.108613
95.386579	1144.481056	0.520491	-0.000682	2.116422
95.937864	1155.495991	0.525496	-0.000788	2.124180
96.623788	1166.497883	0.530501	-0.000920	2.131933
97.234929	1177.549433	0.535506	-0.001037	2.139674
97.799526	1188.591048	0.540510	-0.001146	2.147369
98.363763	1199.612272	0.545515	-0.001255	2.155022
98.946975	1210.630736	0.550520	-0.001367	2.162651
99.679087	1221.654026	0.555524	-0.001507	2.170290
100.341745	1232.702991	0.560529	-0.001634	2.177903
100.653590	1243.744646	0.565534	-0.001695	2.185405
101.311230	1254.745422	0.570539	-0.001821	2.192932
101.662636	1265.808887	0.575543	-0.001890	2.200406
102.514379	1276.754713	0.580548	-0.002052	2.207888
103.240862	1287.820670	0.585553	-0.002191	2.215397
103.873681	1298.845871	0.590558	-0.002313	2.222832
104.310818	1309.901105	0.595562	-0.002398	2.230218
104.730066	1320.936005	0.600567	-0.002479	2.237563
105.193181	1331.953794	0.605572	-0.002569	2.244882
105.776456	1342.957289	0.610576	-0.002681	2.252194
106.364677	1354.014144	0.615581	-0.002794	2.259517
106.980814	1364.985975	0.620586	-0.002912	2.266768
107.685117	1376.045025	0.625591	-0.003047	2.274071
108.014255	1387.090508	0.630595	-0.003112	2.281261
108.484109	1398.089634	0.635600	-0.003203	2.288428
108.994381	1409.148390	0.640605	-0.003301	2.295620
109.363795	1420.149053	0.645610	-0.003373	2.302722
110.025960	1431.155855	0.650614	-0.003500	2.309868
110.438094	1442.211516	0.655619	-0.003580	2.316970
111.168047	1453.206287	0.660624	-0.003720	2.324078
111.634004	1464.237544	0.665628	-0.003810	2.331133
112.511298	1475.230659	0.670633	-0.003977	2.338227
112.997086	1486.327747	0.675638	-0.004071	2.345283
113.406019	1497.319138	0.680643	-0.004151	2.352237
113.979876	1508.339564	0.685647	-0.004261	2.359221
114.441147	1519.393293	0.690652	-0.004350	2.366183
114.905040	1530.400445	0.695657	-0.004440	2.373096
115.338676	1541.424340	0.700661	-0.004524	2.379992
115.997187	1552.419682	0.705666	-0.004651	2.386896
116.654834	1563.476436	0.710671	-0.004777	2.393818
116.942742	1574.505884	0.715676	-0.004833	2.400629
117.379957	1585.529262	0.720680	-0.004918	2.407446
117.897801	1596.558066	0.725685	-0.005018	2.414263
118.222435	1607.561766	0.730690	-0.005082	2.421008
118.676749	1618.590001	0.735695	-0.005170	2.427774
119.092520	1629.633069	0.740699	-0.005251	2.434522
119.542234	1640.618134	0.745704	-0.005338	2.441224
120.088330	1651.665019	0.750709	-0.005443	2.447962
120.323713	1662.712373	0.755713	-0.005490	2.454622
120.841039	1673.683067	0.760718	-0.005589	2.461273
121.334747	1684.727880	0.765723	-0.005685	2.467945
122.165557	1695.716822	0.770728	-0.005843	2.474631
122.828271	1706.766140	0.775732	-0.005971	2.481302
122.913850	1717.853010	0.780737	-0.005989	2.487867
123.134812	1728.837969	0.785742	-0.006034	2.494380
123.911372	1739.819615	0.790747	-0.006182	2.500979
124.326419	1750.851669	0.795751	-0.006263	2.507523
124.862929	1761.901024	0.800756	-0.006366	2.514082
125.450224	1772.869162	0.805761	-0.006479	2.520586
126.000694	1783.935393	0.810765	-0.006585	2.527123
126.402878	1794.975540	0.815770	-0.006663	2.533600
126.927714	1805.959471	0.820775	-0.006764	2.540051
127.312057	1816.994687	0.825780	-0.006839	2.546489
127.922587	1828.034827	0.830784	-0.006956	2.552955
128.214755	1839.039537	0.835789	-0.007014	2.559326
128.788858	1850.057975	0.840794	-0.007124	2.565740
129.220828	1861.088960	0.845799	-0.007208	2.572120
129.649964	1872.183142	0.850803	-0.007292	2.578518
130.029076	1883.119410	0.855808	-0.007365	2.584803
130.581254	1894.148023	0.860813	-0.007472	2.591155
130.934194	1905.164993	0.865817	-0.007541	2.597449
131.481828	1916.199157	0.870822	-0.007646	2.603773
131.964488	1927.191436	0.875827	-0.007739	2.610046
132.629603	1938.220951	0.880832	-0.007867	2.616357
132.986443	1949.261817	0.885836	-0.007937	2.622604
133.429601	1960.285713	0.890841	-0.008023	2.628842
133.725667	1971.310973	0.895846	-0.008081	2.635040
134.157684	1982.313926	0.900850	-0.008165	2.641235
134.593496	1993.346311	0.905855	-0.008249	2.647432
135.093600	2004.375077	0.910860	-0.008346	2.653624
135.687748	2015.336980	0.915865	-0.008460	2.659781
135.996266	2026.431662	0.920869	-0.008521	2.665946
136.034699	2037.460130	0.925874	-0.008530	2.672014
136.460341	2048.444563	0.930879	-0.008613	2.678112
136.740746	2059.436032	0.935884	-0.008668	2.684174
137.095119	2070.487718	0.940888	-0.008738	2.690267
137.432052	2081.467142	0.945893	-0.008804	2.696305
137.806045	2092.529508	0.950898	-0.008876	2.702380
138.280972	2103.501240	0.955902	-0.008968	2.708410
138.616249	2114.548424	0.960907	-0.009034	2.714444
139.163120	2125.552231	0.965912	-0.009139	2.720476
139.729771	2136.574361	0.970917	-0.009248	2.726508
140.306897	2147.616591	0.975921	-0.009359	2.732539
140.728617	2158.616195	0.980926	-0.009441	2.738508
140.909179	2169.642421	0.985931	-0.009478	2.744437
141.459240	2180.657062	0.990936	-0.009584	2.750409
141.778532	2191.692368	0.995940	-0.009646	2.756341
142.189331	2202.724972	1.000945	-0.009726	2.762273
142.394000	2213.728426	1.005950	-0.009767	2.768143
142.655531	2224.751902	1.010954	-0.009819	2.774020
143.129324	2235.758272	1.015959	-0.009911	2.779911
143.378879	2246.790321	1.020964	-0.009960	2.785766
144.086198	2257.784667	1.025969	-0.010096	2.791664
144.547619	2268.815973	1.030973	-0.010185	2.797529
144.826513	2279.839447	1.035978	-0.010240	2.803347
145.276206	2290.870769	1.040983	-0.010327	2.809185
145.691350	2301.866204	1.045988	-0.010408	2.814986
146.547500	2312.863340	1.050992	-0.010571	2.820847
146.877213	2323.925983	1.055997	-0.010636	2.826645
147.308137	2334.963526	1.061002	-0.010719	2.832435
147.477238	2345.957731	1.066006	-0.010754	2.838148
147.899851	2356.974662	1.071011	-0.010836	2.843902
148.390258	2367.996518	1.076016	-0.010931	2.849657
148.750400	2379.032800	1.081021	-0.011001	2.855388
149.131846	2390.027863	1.086025	-0.011075	2.861089
149.317526	2401.069583	1.091030	-0.011113	2.866771
149.674061	2412.070480	1.096035	-0.011183	2.872449
149.981870	2423.107319	1.101039	-0.011243	2.878126
150.253923	2434.109143	1.106044	-0.011297	2.883768
150.926085	2445.122675	1.111049	-0.011426	2.889467
151.440448	2456.152254	1.116054	-0.011525	2.895138
151.876022	2467.165813	1.121058	-0.011609	2.900778
152.226386	2478.177263	1.126063	-0.011678	2.906393
152.813846	2489.197477	1.131068	-0.011791	2.912037
153.282502	2500.205219	1.136073	-0.011881	2.917646
153.902472	2511.225878	1.141077	-0.012000	2.923274
154.292693	2522.259320	1.146082	-0.012076	2.928862
154.601514	2533.294712	1.151087	-0.012137	2.934428
154.858894	2544.304461	1.156091	-0.012188	2.939963
155.228438	2555.325628	1.161096	-0.012260	2.945510
155.673328	2566.326895	1.166101	-0.012346	2.951047
155.995834	2577.378913	1.171106	-0.012410	2.956581
156.242423	2588.370943	1.176110	-0.012459	2.962064
156.736523	2599.389564	1.181115	-0.012554	2.967587
157.003573	2610.420090	1.186120	-0.012607	2.973071
157.640344	2621.400139	1.191125	-0.012729	2.978575
157.921095	2632.454711	1.196129	-0.012785	2.984052
158.600809	2643.458583	1.201134	-0.012915	2.989554
158.926902	2654.481641	1.206139	-0.012979	2.995002
159.271587	2665.497180	1.211143	-0.013046	3.000440
159.774212	2676.507345	1.216148	-0.013143	3.005888
160.109377	2687.565293	1.221153	-0.013209	3.011325
160.313828	2698.544718	1.226158	-0.013250	3.016695
160.632407	2709.593373	1.231162	-0.013312	3.022105
160.912598	2720.594381	1.236167	-0.013368	3.027477
161.311430	2731.593930	1.241172	-0.013445	3.032856
161.500126	2742.662720	1.246177	-0.013483	3.038229
161.820133	2753.643360	1.251181	-0.013546	3.043568
162.320850	2764.670856	1.256186	-0.013643	3.048946
162.732266	2775.679311	1.261191	-0.013723	3.054293
163.018246	2786.692104	1.266195	-0.013779	3.059614
163.713129	2797.691435	1.271200	-0.013912	3.064978
164.084197	2808.748906	1.276205	-0.013985	3.070314
164.294696	2819.774813	1.281210	-0.014027	3.075603
164.675100	2830.756369	1.286214	-0.014101	3.080886
165.174125	2841.791033	1.291219	-0.014197	3.086202
165.361964	2852.818936	1.296224	-0.014235	3.091461
165.542076	2863.841728	1.301228	-0.014272	3.096708
165.777244	2874.834754	1.306233	-0.014319	3.101939
166.081792	2885.873088	1.311238	-0.014379	3.107193
166.442127	2896.878168	1.316243	-0.014449	3.112430
166.693139	2907.911828	1.321247	-0.014499	3.117656
166.921866	2918.929596	1.326252	-0.014544	3.122863
167.386496	2929.929887	1.331257	-0.014634	3.128086
167.758374	2940.935616	1.336262	-0.014707	3.133289
168.142881	2951.969699	1.341266	-0.014782	3.138499
168.362667	2962.986488	1.346271	-0.014826	3.143669
168.756457	2974.014236	1.351276	-0.014902	3.148860
169.197708	2985.000337	1.356280	-0.014988	3.154029
169.543095	2996.045093	1.361285	-0.015055	3.159204
170.023075	3007.031903	1.366290	-0.015148	3.164361
170.570475	3018.066072	1.371295	-0.015254	3.169541
170.887397	3029.083988	1.376299	-0.015316	3.174674
171.159603	3040.132426	1.381304	-0.015370	3.179807
171.495841	3051.111827	1.386309	-0.015435	3.184908
171.895872	3062.158585	1.391314	-0.015513	3.190040
172.160577	3073.148522	1.396318	-0.015566	3.195120
172.635876	3084.189851	1.401323	-0.015657	3.200243
172.889353	3095.192839	1.406328	-0.015708	3.205311
173.152171	3106.234053	1.411332	-0.015760	3.210389
173.337043	3117.215572	1.416337	-0.015797	3.215422
173.846916	3128.229590	1.421342	-0.015896	3.220505
174.081940	3139.248170	1.426347	-0.015942	3.225545
174.599313	3150.277068	1.431351	-0.016042	3.230620
174.945276	3161.289162	1.436356	-0.016110	3.235656
175.304208	3172.303984	1.441361	-0.016180	3.240687
175.717777	3183.321260	1.446366	-0.016260	3.245718
175.991890	3194.358056	1.451370	-0.016314	3.250733
176.389103	3205.352536	1.456375	-0.016392	3.255736
176.523022	3216.397505	1.461380	-0.016420	3.260720
176.817465	3227.399579	1.466384	-0.016478	3.265698
177.161851	3238.414193	1.471389	-0.016545	3.270681
177.259941	3249.442434	1.476394	-0.016566	3.275630
177.870850	3260.433855	1.481399	-0.016683	3.280621
177.894592	3271.488470	1.486403	-0.016691	3.285557
178.319048	3282.485399	1.491408	-0.016773	3.290512
178.624766	3293.483309	1.496413	-0.016833	3.295444
178.988511	3304.515240	1.501417	-0.016904	3.300391
179.416470	3315.536671	1.506422	-0.016987	3.305334
179.707244	3326.536415	1.511427	-0.017044	3.310243
180.152465	3337.568280	1.516432	-0.017131	3.315178
180.616273	3348.560820	1.521436	-0.017220	3.320090
180.781102	3359.600943	1.526441	-0.017254	3.324979
181.263462	3370.625811	1.531446	-0.017347	3.329893
181.587427	3381.621261	1.536451	-0.017411	3.334767
182.157232	3392.624185	1.541455	-0.017520	3.339668
182.493635	3403.646252	1.546460	-0.017586	3.344542
183.133399	3414.678458	1.551465	-0.017709	3.349449
183.531524	3425.686857	1.556469	-0.017786	3.354310
183.868628	3436.708734	1.561474	-0.017852	3.359161
184.145368	3447.749502	1.566479	-0.017907	3.364007
184.627279	3458.735226	1.571484	-0.018000	3.368846
184.739709	3469.776840	1.576488	-0.018024	3.373658
185.037967	3480.783710	1.581493	-0.018083	3.378470
185.240001	3491.796722	1.586498	-0.018123	3.383266
185.721311	3502.800192	1.591503	-0.018216	3.388085
186.116439	3513.828681	1.596507	-0.018293	3.392898
186.381928	3524.850005	1.601512	-0.018346	3.397685
186.593130	3535.855126	1.606517	-0.018388	3.402452
186.866899	3546.896951	1.611521	-0.018442	3.407235
187.234995	3557.877415	1.616526	-0.018514	3.411996
187.568606	3568.911556	1.621531	-0.018579	3.416770
187.810507	3579.924193	1.626536	-0.018628	3.421516
188.181771	3590.942041	1.631540	-0.018700	3.426274
188.332380	3601.971605	1.636545	-0.018731	3.431004
188.665530	3612.971142	1.641550	-0.018796	3.435736
188.994381	3623.987352	1.646555	-0.018861	3.440468
189.345155	3635.008582	1.651559	-0.018929	3.445198
189.611361	3646.048037	1.656564	-0.018982	3.449919
189.967771	3657.038245	1.661569	-0.019051	3.454624
190.311088	3668.051066	1.666573	-0.019119	3.459330
190.628959	3679.083993	1.671578	-0.019181	3.464035
190.786001	3690.115047	1.676583	-0.019213	3.468715
191.228319	3701.085803	1.681588	-0.019299	3.473395
191.626294	3712.109140	1.686592	-0.019376	3.478086
191.942341	3723.125636	1.691597	-0.019438	3.482759
192.131290	3734.179364	1.696602	-0.019476	3.487426
192.609921	3745.139119	1.701606	-0.019569	3.492080
192.894608	3756.191503	1.706611	-0.019625	3.496745
193.363134	3767.204288	1.711616	-0.019716	3.501408
193.490150	3778.234075	1.716621	-0.019742	3.506033
193.677231	3789.226274	1.721625	-0.019780	3.510643
193.858898	3800.272786	1.726630	-0.019817	3.515269
194.166986	3811.252404	1.731635	-0.019878	3.519875
194.957363	3822.272093	1.736640	-0.020029	3.524546
195.778284	3833.273282	1.741644	-0.020185	3.529207
196.187842	3844.300978	1.746649	-0.020265	3.533826
196.628074	3855.345748	1.751654	-0.020350	3.538449
196.808156	3866.346508	1.756658	-0.020387	3.543019
197.330295	3877.349473	1.761663	-0.020487	3.547622
197.526899	3888.370176	1.766668	-0.020527	3.552190
197.931926	3899.393084	1.771673	-0.020606	3.556777
198.077948	3910.422087	1.776677	-0.020636	3.561331
198.691550	3921.392107	1.781682	-0.020754	3.565906
199.124081	3932.450524	1.786687	-0.020838	3.570492
199.590407	3943.436746	1.791692	-0.020928	3.575046
199.874849	3954.486905	1.796696	-0.020984	3.579601
200.163098	3965.488481	1.801701	-0.021041	3.584130
200.382872	3976.534024	1.806706	-0.021085	3.588663
200.784815	3987.496046	1.811710	-0.021163	3.593177
201.053015	3998.560833	1.816715	-0.021216	3.597713
201.653815	4009.509700	1.821720	-0.021331	3.602231
201.997472	4020.585161	1.826725	-0.021399	3.606767
202.364928	4031.567679	1.831729	-0.021470	3.611263
202.646095	4042.607186	1.836734	-0.021526	3.615766
202.936342	4053.612758	1.841739	-0.021583	3.620251
203.266825	4064.643214	1.846744	-0.021648	3.624745
203.530017	4075.631962	1.851748	-0.021700	3.629209
203.732860	4086.687636	1.856753	-0.021741	3.633688
204.154968	4097.710049	1.861758	-0.021823	3.638172
204.225656	4108.763869	1.866762	-0.021839	3.642625
204.670658	4119.734903	1.871767	-0.021925	3.647079
205.008242	4130.782305	1.876772	-0.021991	3.651547
205.332641	4141.773728	1.881777	-0.022054	3.655986
205.654127	4152.795955	1.886781	-0.022118	3.660431
206.044299	4163.817741	1.891786	-0.022193	3.664877
206.512521	4174.834355	1.896791	-0.022284	3.669325
206.678090	4185.864925	1.901795	-0.022318	3.673740
206.823484	4196.867133	1.906800	-0.022348	3.678138
207.213088	4207.895750	1.911805	-0.022424	3.682565
207.335708	4218.918079	1.916810	-0.022449	3.686957
207.691219	4229.895266	1.921814	-0.022519	3.691350
207.953731	4240.926631	1.926819	-0.022571	3.695750
208.118329	4251.944782	1.931824	-0.022604	3.700129
208.282167	4262.977120	1.936829	-0.022638	3.704508
208.605285	4273.964675	1.941833	-0.022701	3.708881
208.660377	4285.006518	1.946838	-0.022714	3.713242
208.997243	4296.006596	1.951843	-0.022780	3.717611
209.429866	4307.030043	1.956847	-0.022864	3.721993
209.932153	4318.021032	1.961852	-0.022961	3.726364
210.177507	4329.051960	1.966857	-0.023010	3.730720
210.406722	4340.079449	1.971862	-0.023056	3.735068
210.689312	4351.075127	1.976866	-0.023111	3.739403
