Wed Nov 23 18:28:15 2022

Number of Points = 2200
Depth (nm)	Load (µN)	Time (s)	Depth (V)	Load (V)
-30.139059	-1.699780	0.000000	0.019219	0.999555
-6.732604	1.847240	0.005005	0.014827	1.017382
0.000000	14.430772	0.010009	0.013560	1.038955
2.752805	26.644059	0.015014	0.013041	1.057525
5.456829	38.067086	0.020019	0.012530	1.074666
7.735918	49.364521	0.025024	0.012100	1.091156
10.138882	60.564108	0.030028	0.011646	1.107328
12.187140	71.764220	0.035033	0.011259	1.123096
14.239756	82.940850	0.040038	0.010871	1.138615
15.960907	94.102960	0.045043	0.010545	1.153750
18.179723	105.167223	0.050047	0.010126	1.168795
20.381156	116.264142	0.055052	0.009711	1.183680
22.387034	127.442394	0.060057	0.009331	1.198390
23.877028	138.660685	0.065061	0.009049	1.212739
25.583505	149.742549	0.070066	0.008726	1.226851
27.019756	160.896550	0.075071	0.008454	1.240770
29.020032	171.899739	0.080076	0.008076	1.254598
30.590504	183.063524	0.085080	0.007778	1.268278
32.342450	194.140712	0.090085	0.007447	1.281788
33.728232	205.306456	0.095090	0.007184	1.295104
35.281851	216.430967	0.100094	0.006890	1.308307
36.794754	227.452521	0.105099	0.006603	1.321245
38.327072	238.554598	0.110104	0.006313	1.334154
39.371928	249.712621	0.115109	0.006114	1.346805
40.802347	260.730604	0.120113	0.005843	1.359338
41.780082	271.893478	0.125118	0.005657	1.371735
43.010150	282.938616	0.130123	0.005423	1.383993
44.197219	293.990172	0.135128	0.005198	1.396132
45.905293	304.994843	0.140132	0.004874	1.408314
47.022837	316.150738	0.145137	0.004662	1.420326
48.173479	327.223583	0.150142	0.004443	1.432164
48.981877	338.360028	0.155146	0.004289	1.443842
50.124020	349.376766	0.160151	0.004072	1.455428
51.155298	360.449269	0.165156	0.003876	1.466937
52.360100	371.488935	0.170161	0.003647	1.478385
53.409750	382.570672	0.175165	0.003447	1.489731
54.592399	393.624886	0.180170	0.003223	1.501010
55.577176	404.677618	0.185175	0.003035	1.512135
57.020502	415.714963	0.190180	0.002761	1.523321
58.016170	426.815327	0.195184	0.002572	1.534331
59.296765	437.837244	0.200189	0.002329	1.545285
59.980764	449.006415	0.205194	0.002198	1.556099
60.902740	460.010772	0.210198	0.002022	1.566763
61.852542	471.054132	0.215203	0.001841	1.577400
63.144527	482.058738	0.220208	0.001596	1.588042
64.294442	493.115979	0.225213	0.001377	1.598614
65.441171	504.200856	0.230217	0.001159	1.609141
66.164447	515.307757	0.235222	0.001021	1.619482
67.278473	526.288473	0.240227	0.000809	1.629768
68.017226	537.391209	0.245232	0.000668	1.639979
69.039811	548.403084	0.250236	0.000473	1.650135
70.019000	559.444032	0.255241	0.000287	1.660241
71.077944	570.496251	0.260246	0.000085	1.670320
71.741842	581.591184	0.265250	-0.000042	1.680253
72.730861	592.585666	0.270255	-0.000230	1.690140
73.725742	603.654431	0.275260	-0.000420	1.700035
74.718168	614.692082	0.280265	-0.000609	1.709844
75.430459	625.780252	0.285269	-0.000745	1.719556
76.159128	636.801737	0.290274	-0.000884	1.729161
76.887524	647.875667	0.295279	-0.001024	1.738757
77.689818	658.879623	0.300283	-0.001177	1.748263
78.917035	669.845960	0.305288	-0.001410	1.757811
79.933265	680.964973	0.310293	-0.001604	1.767372
80.427815	692.073428	0.315298	-0.001699	1.776720
81.022427	703.084435	0.320302	-0.001813	1.785969
81.895888	714.076541	0.325307	-0.001980	1.795233
82.853963	725.113857	0.330312	-0.002163	1.804511
83.691767	736.159386	0.335317	-0.002322	1.813714
84.646699	747.206164	0.340321	-0.002504	1.822903
85.009114	758.302972	0.345326	-0.002575	1.831920
85.906787	769.288736	0.350331	-0.002746	1.840954
86.589875	780.350907	0.355335	-0.002877	1.849944
87.464413	791.359386	0.360340	-0.003044	1.858900
88.252411	802.396210	0.365345	-0.003195	1.867812
89.060632	813.466378	0.370350	-0.003349	1.876713
89.521025	824.501201	0.375354	-0.003438	1.885449
90.259276	835.533490	0.380359	-0.003579	1.894218
91.168549	846.518250	0.385364	-0.003753	1.902955
92.117984	857.566399	0.390369	-0.003934	1.911712
92.672961	868.672749	0.395373	-0.004041	1.920368
93.482935	879.626937	0.400378	-0.004195	1.928936
94.268274	890.725463	0.405383	-0.004345	1.937569
95.059498	901.718575	0.410387	-0.004497	1.946085
95.565142	912.795306	0.415392	-0.004594	1.954553
96.153824	923.830262	0.420397	-0.004707	1.962974
96.702120	934.852556	0.425402	-0.004813	1.971339
97.453618	945.854821	0.430406	-0.004957	1.979705
98.186569	956.899774	0.435411	-0.005097	1.988063
99.040063	967.900467	0.440416	-0.005260	1.996383
99.647117	978.995506	0.445421	-0.005376	2.004676
100.203241	990.033235	0.450425	-0.005484	2.012879
100.601958	1001.065264	0.455430	-0.005561	2.021006
101.415205	1012.045931	0.460435	-0.005716	2.029166
102.160147	1023.083745	0.465439	-0.005859	2.037317
103.046743	1034.142204	0.470444	-0.006028	2.045484
103.495663	1045.190570	0.475449	-0.006115	2.053505
104.172925	1056.205542	0.480454	-0.006245	2.061526
104.891634	1067.212713	0.485458	-0.006382	2.069520
105.665205	1078.265445	0.490463	-0.006530	2.077529
106.277692	1089.306845	0.495468	-0.006648	2.085460
107.149517	1100.302783	0.500472	-0.006814	2.093390
107.592638	1111.383589	0.505477	-0.006900	2.101248
108.090838	1122.398450	0.510482	-0.006996	2.109043
108.617274	1133.422438	0.515487	-0.007098	2.116823
109.332183	1144.447641	0.520491	-0.007235	2.124618
109.896392	1155.482386	0.525496	-0.007343	2.132357
110.474416	1166.517155	0.530501	-0.007455	2.140070
111.143513	1177.508914	0.535506	-0.007583	2.147747
111.686998	1188.588844	0.540510	-0.007688	2.155428
112.444576	1199.536704	0.545515	-0.007832	2.163041
113.382941	1210.596626	0.550520	-0.008011	2.170743
113.855539	1221.681114	0.555524	-0.008103	2.178329
114.484358	1232.673965	0.560529	-0.008223	2.185862
114.862153	1243.724278	0.565534	-0.008297	2.193351
115.589130	1254.703289	0.570539	-0.008436	2.200845
116.189035	1265.763811	0.575543	-0.008551	2.208339
116.988679	1276.759435	0.580548	-0.008704	2.215809
117.554683	1287.816059	0.585553	-0.008813	2.223242
118.150621	1298.851721	0.590558	-0.008928	2.230643
118.633821	1309.870270	0.595562	-0.009021	2.237983
119.400380	1320.882884	0.600567	-0.009168	2.245357
119.840744	1331.930615	0.605572	-0.009253	2.252659
120.459347	1342.967296	0.610576	-0.009372	2.259968
120.978469	1353.961358	0.615581	-0.009472	2.267204
121.367944	1365.038151	0.620586	-0.009548	2.274443
121.955788	1375.991882	0.625591	-0.009661	2.281622
122.766649	1387.024824	0.630595	-0.009816	2.288876
123.312279	1398.090177	0.635600	-0.009921	2.296072
124.240071	1409.050364	0.640605	-0.010098	2.303259
124.907702	1420.101424	0.645610	-0.010226	2.310426
125.596974	1431.144195	0.650614	-0.010358	2.317570
125.835229	1442.225786	0.655619	-0.010405	2.324621
126.724429	1453.150643	0.660624	-0.010575	2.331689
127.323240	1464.240257	0.665628	-0.010690	2.338778
128.180799	1475.203826	0.670633	-0.010853	2.345820
128.717343	1486.293729	0.675638	-0.010957	2.352853
128.886073	1497.344930	0.680643	-0.010991	2.359765
129.383330	1508.310396	0.685647	-0.011087	2.366671
130.127501	1519.348671	0.690652	-0.011230	2.373653
130.613235	1530.368539	0.695657	-0.011323	2.380549
131.229219	1541.380220	0.700661	-0.011442	2.387447
131.770809	1552.443609	0.705666	-0.011546	2.394342
132.271083	1563.442642	0.710671	-0.011643	2.401169
132.956392	1574.467000	0.715676	-0.011774	2.408028
133.550535	1585.495443	0.720680	-0.011888	2.414853
133.977803	1596.523634	0.725685	-0.011971	2.421624
134.330963	1607.563704	0.730690	-0.012040	2.428369
134.747101	1618.569004	0.735695	-0.012121	2.435087
135.344602	1629.585465	0.740699	-0.012236	2.441829
135.780819	1640.628158	0.745704	-0.012320	2.448536
136.369900	1651.626991	0.750709	-0.012434	2.455228
136.697112	1662.673815	0.755713	-0.012498	2.461879
137.323488	1673.676527	0.760718	-0.012618	2.468544
137.800006	1684.720806	0.765723	-0.012710	2.475186
138.579251	1695.679684	0.770728	-0.012859	2.481819
139.101605	1706.750764	0.775732	-0.012960	2.488450
139.642312	1717.783745	0.780737	-0.013064	2.495045
140.055115	1728.815271	0.785742	-0.013144	2.501597
140.623751	1739.807314	0.790747	-0.013254	2.508138
141.307107	1750.814436	0.795751	-0.013385	2.514692
142.001423	1761.844222	0.800756	-0.013518	2.521244
142.603212	1772.890583	0.805761	-0.013633	2.527772
143.035701	1783.912087	0.810765	-0.013717	2.534236
143.678946	1794.911836	0.815770	-0.013841	2.540710
144.112263	1805.961405	0.820775	-0.013925	2.547158
144.537697	1816.985294	0.825780	-0.014007	2.553572
145.064696	1827.994414	0.830784	-0.014109	2.559981
145.692348	1838.989614	0.835789	-0.014229	2.566384
146.356689	1850.059165	0.840794	-0.014357	2.572821
146.620980	1861.131853	0.845799	-0.014409	2.579169
147.319514	1872.048410	0.850803	-0.014543	2.585493
147.617681	1883.138780	0.855808	-0.014601	2.591826
148.041493	1894.130913	0.860813	-0.014684	2.598111
148.528901	1905.147909	0.865817	-0.014778	2.604407
148.883824	1916.186800	0.870822	-0.014847	2.610675
149.179717	1927.198280	0.875827	-0.014906	2.616903
149.965038	1938.192092	0.880832	-0.015056	2.623193
150.443588	1949.218560	0.885836	-0.015148	2.629431
150.954156	1960.247618	0.890841	-0.015247	2.635662
151.357531	1971.291463	0.895846	-0.015325	2.641867
151.969516	1982.279905	0.900850	-0.015443	2.648063
152.409397	1993.329277	0.905855	-0.015528	2.654248
152.987352	2004.332522	0.910860	-0.015639	2.660418
153.390825	2015.356679	0.915865	-0.015717	2.666554
153.871271	2026.398295	0.920869	-0.015810	2.672698
154.207016	2037.391963	0.925874	-0.015876	2.678778
154.719188	2048.397520	0.930879	-0.015975	2.684880
155.105288	2059.445732	0.935884	-0.016050	2.690970
155.833145	2070.388494	0.940888	-0.016189	2.697047
156.565969	2081.448615	0.945893	-0.016330	2.703175
157.109569	2092.470952	0.950898	-0.016434	2.709236
157.338092	2103.530622	0.955902	-0.016480	2.715250
157.962141	2114.483610	0.960907	-0.016600	2.721260
158.450213	2125.553784	0.965912	-0.016694	2.727297
158.671126	2136.597391	0.970917	-0.016738	2.733261
159.126302	2147.541646	0.975921	-0.016826	2.739198
159.679841	2158.602784	0.980926	-0.016933	2.745201
160.137679	2169.627389	0.985931	-0.017022	2.751155
160.853270	2180.621001	0.990936	-0.017159	2.757123
161.141505	2191.662951	0.995940	-0.017215	2.763032
161.609300	2202.663926	1.000945	-0.017306	2.768937
162.229180	2213.698236	1.005950	-0.017425	2.774871
162.606678	2224.719992	1.010954	-0.017499	2.780747
163.085842	2235.733836	1.015959	-0.017591	2.786622
163.756397	2246.752972	1.020964	-0.017720	2.792519
164.105447	2257.765681	1.025969	-0.017788	2.798347
164.755170	2268.785993	1.030973	-0.017913	2.804216
165.135513	2279.839013	1.035978	-0.017987	2.810046
165.874194	2290.804257	1.040983	-0.018128	2.815876
166.185869	2301.888238	1.045988	-0.018189	2.821687
166.756814	2312.850063	1.050992	-0.018299	2.827464
167.238815	2323.910833	1.055997	-0.018392	2.833266
167.494470	2334.912373	1.061002	-0.018443	2.838989
168.230633	2345.914710	1.066006	-0.018584	2.844778
168.905053	2356.946040	1.071011	-0.018713	2.850559
169.000470	2367.985519	1.076016	-0.018734	2.856242
169.511785	2379.000113	1.081021	-0.018832	2.861965
169.739299	2390.025701	1.086025	-0.018878	2.867639
170.299840	2401.011419	1.091030	-0.018986	2.873333
170.717214	2412.055600	1.096035	-0.019067	2.879022
171.125675	2423.076906	1.101039	-0.019146	2.884688
171.559921	2434.101370	1.106044	-0.019230	2.890348
171.880039	2445.126133	1.111049	-0.019293	2.895979
172.545822	2456.097864	1.116054	-0.019421	2.901626
173.199606	2467.119591	1.121058	-0.019546	2.907285
173.791984	2478.151276	1.126063	-0.019660	2.912928
174.302903	2489.190720	1.131068	-0.019759	2.918552
174.587151	2500.210221	1.136073	-0.019815	2.924120
174.996271	2511.224885	1.141077	-0.019894	2.929694
175.291323	2522.253172	1.146082	-0.019952	2.935247
175.636746	2533.261041	1.151087	-0.020020	2.940786
176.049596	2544.265816	1.156091	-0.020100	2.946324
176.369707	2555.315515	1.161096	-0.020163	2.951860
176.847517	2566.301945	1.166101	-0.020255	2.957377
177.423343	2577.312593	1.171106	-0.020366	2.962911
177.676974	2588.376187	1.176110	-0.020416	2.968412
178.347301	2599.331433	1.181115	-0.020545	2.973912
178.753326	2610.401538	1.186120	-0.020624	2.979419
179.287994	2621.395856	1.191125	-0.020727	2.984897
179.485435	2632.456555	1.196129	-0.020767	2.990347
180.115068	2643.409390	1.201134	-0.020888	2.995799
180.816022	2654.467002	1.206139	-0.021022	3.001302
181.381966	2665.451035	1.211143	-0.021131	3.006740
181.469387	2676.526110	1.216148	-0.021150	3.012141
181.832402	2687.505011	1.221153	-0.021221	3.017527
182.149523	2698.535737	1.226158	-0.021283	3.022921
182.632221	2709.550488	1.231162	-0.021376	3.028322
183.273401	2720.544487	1.236167	-0.021499	3.033726
183.900494	2731.589581	1.241172	-0.021620	3.039142
184.373773	2742.605593	1.246177	-0.021711	3.044513
184.726124	2753.632795	1.251181	-0.021780	3.049862
185.252619	2764.620018	1.256186	-0.021882	3.055208
185.732129	2775.652803	1.261191	-0.021974	3.060559
185.977719	2786.691999	1.266195	-0.022023	3.065870
186.572073	2797.675102	1.271200	-0.022137	3.071195
186.887822	2808.719978	1.276205	-0.022199	3.076501
187.488795	2819.710821	1.281210	-0.022315	3.081812
187.959079	2830.750797	1.286214	-0.022406	3.087118
188.582954	2841.742383	1.291219	-0.022526	3.092414
188.784936	2852.819501	1.296224	-0.022566	3.097682
189.332413	2863.775214	1.301228	-0.022672	3.102932
189.732341	2874.840697	1.306233	-0.022749	3.108204
189.983363	2885.841844	1.311238	-0.022799	3.113416
190.665949	2896.836280	1.316243	-0.022930	3.118676
191.320286	2907.852999	1.321247	-0.023056	3.123934
191.878751	2918.903831	1.326252	-0.023163	3.129185
192.411109	2929.871202	1.331257	-0.023266	3.134385
192.883358	2940.938606	1.336262	-0.023357	3.139614
193.295656	2951.929202	1.341266	-0.023437	3.144790
193.902289	2962.974121	1.346271	-0.023554	3.150010
194.379599	2973.939925	1.351276	-0.023646	3.155167
194.665069	2985.019361	1.356280	-0.023702	3.160341
195.056185	2996.014834	1.361285	-0.023778	3.165483
195.402919	3007.053046	1.366290	-0.023846	3.170630
195.809531	3018.027755	1.371295	-0.023925	3.175747
196.221325	3029.074715	1.376299	-0.024005	3.180890
196.552890	3040.083145	1.381304	-0.024070	3.185996
196.862896	3051.097473	1.386309	-0.024131	3.191094
197.155608	3062.115672	1.391314	-0.024189	3.196183
197.603637	3073.127159	1.396318	-0.024275	3.201281
198.022881	3084.153384	1.401323	-0.024357	3.206374
198.551625	3095.169979	1.406328	-0.024459	3.211469
198.949470	3106.158778	1.411332	-0.024536	3.216525
199.138813	3117.229661	1.416337	-0.024574	3.221584
199.762118	3128.199736	1.421342	-0.024694	3.226646
200.243295	3139.220400	1.426347	-0.024787	3.231704
200.729414	3150.248426	1.431351	-0.024881	3.236757
201.063758	3161.288779	1.436356	-0.024947	3.241789
201.436930	3172.288366	1.441361	-0.025019	3.246800
201.798017	3183.315041	1.446366	-0.025090	3.251813
201.998131	3194.320543	1.451370	-0.025130	3.256788
202.588044	3205.309246	1.456375	-0.025243	3.261798
203.141247	3216.368472	1.461380	-0.025350	3.266828
203.409919	3227.391316	1.466384	-0.025403	3.271796
203.901361	3238.355623	1.471389	-0.025498	3.276760
203.981055	3249.439936	1.476394	-0.025516	3.281717
204.422114	3260.414154	1.481399	-0.025601	3.286663
204.813025	3271.437196	1.486403	-0.025677	3.291617
205.538364	3282.431247	1.491408	-0.025816	3.296593
205.811678	3293.482466	1.496413	-0.025870	3.301529
206.157060	3304.501100	1.501417	-0.025938	3.306453
206.263283	3315.518208	1.506422	-0.025960	3.311338
206.745233	3326.513768	1.511427	-0.026054	3.316254
207.243757	3337.539144	1.516432	-0.026150	3.321178
207.563399	3348.559624	1.521436	-0.026212	3.326070
207.940262	3359.589707	1.526441	-0.026286	3.330966
208.381495	3370.560561	1.531446	-0.026371	3.335836
208.855957	3381.616203	1.536451	-0.026463	3.340741
209.406448	3392.602885	1.541455	-0.026569	3.345618
209.833500	3403.651626	1.546460	-0.026652	3.350499
210.050263	3414.658649	1.551465	-0.026695	3.355329
210.321566	3425.696530	1.556469	-0.026749	3.360172
210.693727	3436.684951	1.561474	-0.026822	3.364999
210.718842	3447.767439	1.566479	-0.026829	3.369818
211.174081	3458.674014	1.571484	-0.026917	3.374605
211.895301	3469.736235	1.576488	-0.027055	3.379485
212.310110	3480.744128	1.581493	-0.027136	3.384298
212.699755	3491.790310	1.586498	-0.027212	3.389117
213.062764	3502.769501	1.591503	-0.027283	3.393897
213.648134	3513.812773	1.596507	-0.027395	3.398725
213.969166	3524.823914	1.601512	-0.027458	3.403500
214.354252	3535.848284	1.606517	-0.027533	3.408282
214.569603	3546.851923	1.611521	-0.027576	3.413027
214.832401	3557.903133	1.616526	-0.027628	3.417792
214.969776	3568.874801	1.621531	-0.027657	3.422502
215.519153	3579.897493	1.626536	-0.027763	3.427276
215.736585	3590.929817	1.631540	-0.027806	3.432007
216.211684	3601.956203	1.636545	-0.027898	3.436760
216.585610	3612.935918	1.641550	-0.027971	3.441475
216.783103	3623.997382	1.646555	-0.028011	3.446197
217.387885	3634.947944	1.651559	-0.028127	3.450913
217.828730	3646.015253	1.656564	-0.028212	3.455653
218.210243	3657.008156	1.661569	-0.028287	3.460348
218.465378	3668.064390	1.666573	-0.028337	3.465048
218.616517	3679.047430	1.671578	-0.028368	3.469699
218.933036	3690.060800	1.676583	-0.028430	3.474376
219.461403	3701.077310	1.681588	-0.028532	3.479072
219.962009	3712.110854	1.686592	-0.028629	3.483766
220.301236	3723.095168	1.691597	-0.028695	3.488414
220.685144	3734.144872	1.696602	-0.028770	3.493088
221.108428	3745.123598	1.701606	-0.028852	3.497731
221.508171	3756.161847	1.706611	-0.028930	3.502389
222.042416	3767.186037	1.711616	-0.029033	3.507051
222.411114	3778.187969	1.716621	-0.029105	3.511679
222.773549	3789.207961	1.721625	-0.029176	3.516307
223.106069	3800.241158	1.726630	-0.029241	3.520931
223.486788	3811.255032	1.731635	-0.029315	3.525546
223.797690	3822.270201	1.736640	-0.029376	3.530148
224.087533	3833.276304	1.741644	-0.029433	3.534737
224.371103	3844.306986	1.746649	-0.029489	3.539330
224.640764	3855.299282	1.751654	-0.029542	3.543900
224.986674	3866.332413	1.756658	-0.029610	3.548489
225.241449	3877.346299	1.761663	-0.029660	3.553054
225.630562	3888.352102	1.766668	-0.029736	3.557625
225.935026	3899.370081	1.771673	-0.029796	3.562185
226.449583	3910.381061	1.776677	-0.029895	3.566760
226.889885	3921.386929	1.781682	-0.029981	3.571318
227.373658	3932.420040	1.786687	-0.030074	3.575887
227.764372	3943.424592	1.791692	-0.030150	3.580427
228.182579	3954.458313	1.796696	-0.030231	3.584977
228.584464	3965.448726	1.801701	-0.030310	3.589501
229.123784	3976.478844	1.806706	-0.030414	3.594051
229.392366	3987.511096	1.811710	-0.030467	3.598566
229.791251	3998.528906	1.816715	-0.030544	3.603084
230.044125	4009.535822	1.821720	-0.030594	3.607576
230.349541	4020.551208	1.826725	-0.030654	3.612072
230.670438	4031.556409	1.831729	-0.030717	3.616559
231.276677	4042.555573	1.836734	-0.030834	3.621069
232.011540	4053.582149	1.841739	-0.030974	3.625597
232.510530	4064.608857	1.846744	-0.031071	3.630095
232.544618	4075.649178	1.851748	-0.031080	3.634543
233.049537	4086.625371	1.856753	-0.031177	3.639010
233.220634	4097.682537	1.861758	-0.031212	3.643469
233.726115	4108.725285	1.866762	-0.031310	3.647951
234.104227	4119.744624	1.871767	-0.031384	3.652406
234.382594	4130.729801	1.876772	-0.031438	3.656830
234.663902	4141.790295	1.881777	-0.031494	3.661280
234.960158	4152.772916	1.886781	-0.031552	3.665694
235.391394	4163.794013	1.891786	-0.031636	3.670133
235.918655	4174.791149	1.896791	-0.031738	3.674566
236.240690	4185.831342	1.901795	-0.031801	3.678990
236.682319	4196.856235	1.906800	-0.031886	3.683415
236.996552	4207.878405	1.911805	-0.031948	3.687820
237.415088	4218.869507	1.916810	-0.032029	3.692218
237.751247	4229.893160	1.921814	-0.032095	3.696616
238.123565	4240.890015	1.926819	-0.032168	3.701001
238.536434	4251.940346	1.931824	-0.032248	3.705406
238.818971	4262.946909	1.936829	-0.032304	3.709775
239.105786	4273.932277	1.941833	-0.032360	3.714131
239.654833	4284.969307	1.946838	-0.032466	3.718529
239.947741	4295.986753	1.951843	-0.032524	3.722888
240.328538	4307.030482	1.956847	-0.032598	3.727261
240.492423	4318.007222	1.961852	-0.032631	3.731581
240.978653	4329.011069	1.966857	-0.032725	3.735939
241.319611	4340.032845	1.971862	-0.032792	3.740283
