Wed Nov 23 17:31:11 2022

Number of Points = 2200
Depth (nm)	Load (µN)	Time (s)	Depth (V)	Load (V)
-1.101667	0.553084	0.000000	0.048710	0.913030
0.000000	7.031287	0.005005	0.048501	0.924115
1.089315	16.133186	0.010009	0.048295	0.939199
1.926695	26.728397	0.015014	0.048135	0.956211
2.990907	37.733889	0.020019	0.047933	0.973675
3.915373	48.884576	0.025024	0.047756	0.990970
4.728758	60.090808	0.030028	0.047601	1.007989
5.478073	71.266731	0.035033	0.047458	1.024646
6.310045	82.434880	0.040038	0.047299	1.041069
6.886364	93.638512	0.045043	0.047188	1.057153
7.551863	104.795444	0.050047	0.047060	1.072977
8.096555	115.950813	0.055052	0.046955	1.088508
8.807042	127.078823	0.060057	0.046819	1.103865
9.148981	138.273960	0.065061	0.046752	1.118920
9.575267	149.400307	0.070066	0.046669	1.133725
10.057326	160.501338	0.075071	0.046576	1.148334
10.632328	171.599284	0.080076	0.046466	1.162798
11.081088	182.736953	0.085080	0.046379	1.177075
11.557732	193.842790	0.090085	0.046287	1.191154
11.906649	204.970677	0.095090	0.046218	1.205038
12.509170	216.058554	0.100094	0.046102	1.218828
13.091231	227.126718	0.105099	0.045991	1.232430
13.670035	238.240413	0.110104	0.045879	1.245936
14.034320	249.365318	0.115109	0.045808	1.259219
14.361704	260.478936	0.120113	0.045744	1.272333
16.574044	270.904953	0.125118	0.045326	1.285313
33.602150	279.600975	0.130123	0.042129	1.302333
34.769233	293.089120	0.135128	0.041907	1.318018
35.781391	304.631471	0.140132	0.041714	1.331298
36.608780	315.824518	0.145137	0.041556	1.343989
38.030370	326.795051	0.150142	0.041286	1.356553
38.948177	337.929683	0.155146	0.041111	1.368981
40.441366	348.957562	0.160151	0.040828	1.381405
41.461831	360.095525	0.165156	0.040634	1.393653
42.524960	371.153043	0.170161	0.040432	1.405725
43.399688	382.287966	0.175165	0.040265	1.417703
44.355781	393.310562	0.180170	0.040083	1.429495
45.646062	404.327744	0.185175	0.039838	1.441308
46.685186	415.451263	0.190180	0.039640	1.453040
47.325739	426.590608	0.195184	0.039517	1.464549
48.112978	437.623299	0.200189	0.039367	1.475913
49.054454	448.630684	0.205194	0.039188	1.487220
50.201345	459.699167	0.210198	0.038970	1.498575
51.506459	470.695164	0.215203	0.038722	1.509828
52.459598	481.848319	0.220208	0.038540	1.521027
53.405724	492.877603	0.225213	0.038360	1.532022
54.543677	503.931960	0.230217	0.038144	1.543027
55.535083	514.996825	0.235222	0.037955	1.553915
56.498638	526.047798	0.240227	0.037772	1.564703
57.746208	537.073252	0.245232	0.037535	1.575488
58.765225	548.155765	0.250236	0.037341	1.586177
59.633361	559.253133	0.255241	0.037175	1.596757
60.396627	570.299222	0.260246	0.037029	1.607185
61.204736	581.355890	0.265250	0.036875	1.617571
62.138366	592.388870	0.270255	0.036697	1.627908
62.821046	603.479488	0.275260	0.036566	1.638151
63.542941	614.503171	0.280265	0.036428	1.648283
64.444796	625.540586	0.285269	0.036256	1.658422
65.081038	636.616326	0.290274	0.036134	1.668449
65.877850	647.645355	0.295279	0.035982	1.678425
67.095261	658.623158	0.300283	0.035750	1.688427
67.918883	669.744840	0.305288	0.035593	1.698373
68.688248	680.778514	0.310293	0.035446	1.708169
69.435998	691.840964	0.315298	0.035303	1.717926
70.304969	702.856992	0.320302	0.035137	1.727625
71.281262	713.888535	0.325307	0.034951	1.737315
72.007399	724.967199	0.330312	0.034812	1.746915
72.917296	735.988224	0.335317	0.034639	1.756469
73.972070	747.004165	0.340321	0.034438	1.766009
74.696216	758.104105	0.345326	0.034300	1.775470
75.529205	769.102040	0.350331	0.034140	1.784829
76.249133	780.187210	0.355335	0.034003	1.794177
77.079139	791.209421	0.360340	0.033844	1.803456
77.720393	802.260035	0.365345	0.033721	1.812657
78.374297	813.299779	0.370350	0.033596	1.821806
79.056362	824.353646	0.375354	0.033465	1.830928
79.867228	835.360636	0.380359	0.033310	1.840003
80.591408	846.395540	0.385364	0.033171	1.849031
81.551720	857.432126	0.390369	0.032989	1.858082
82.353855	868.475113	0.395373	0.032835	1.867050
83.065760	879.533494	0.400378	0.032699	1.875962
83.751657	890.540509	0.405383	0.032568	1.884784
84.791270	901.569290	0.410387	0.032370	1.893678
85.414568	912.633477	0.415392	0.032250	1.902445
86.100971	923.690778	0.420397	0.032119	1.911183
86.788122	934.712818	0.425402	0.031987	1.919854
87.679177	945.709540	0.430406	0.031817	1.928520
88.495811	956.778596	0.435411	0.031661	1.937183
89.158587	967.812287	0.440416	0.031534	1.945740
89.789275	978.832034	0.445421	0.031413	1.954240
90.467833	989.884367	0.450425	0.031283	1.962739
91.164637	1000.910091	0.455430	0.031149	1.971187
91.830689	1011.963382	0.460435	0.031022	1.979611
92.524637	1022.966754	0.465439	0.030889	1.987969
93.204710	1034.042969	0.470444	0.030758	1.996342
93.955420	1045.019287	0.475449	0.030615	2.004624
94.671827	1056.093997	0.480454	0.030478	2.012936
95.287952	1067.156320	0.485458	0.030359	2.021178
95.852466	1078.164445	0.490463	0.030251	2.029335
96.638265	1089.146343	0.495468	0.030100	2.037494
97.540513	1100.201463	0.500472	0.029928	2.045703
98.186819	1111.255738	0.505477	0.029804	2.053814
98.527754	1122.334317	0.510482	0.029738	2.061836
99.018954	1133.324457	0.515487	0.029643	2.069801
99.715306	1144.338122	0.520491	0.029509	2.077801
100.275100	1155.387053	0.525496	0.029402	2.085762
101.162740	1166.381560	0.530501	0.029232	2.093733
101.932584	1177.387098	0.535506	0.029085	2.101653
102.616990	1188.479712	0.540510	0.028954	2.109584
103.343525	1199.473698	0.545515	0.028815	2.117425
104.029242	1210.518754	0.550520	0.028683	2.125264
104.775679	1221.522005	0.555524	0.028541	2.133059
105.519365	1232.580304	0.560529	0.028398	2.140862
106.023722	1243.617325	0.565534	0.028301	2.148566
106.501544	1254.668742	0.570539	0.028209	2.156247
106.873871	1265.698355	0.575543	0.028136	2.163860
107.640268	1276.685839	0.580548	0.027990	2.171509
108.223988	1287.727940	0.585553	0.027877	2.179126
108.758002	1298.750353	0.590558	0.027774	2.186691
109.243092	1309.809605	0.595562	0.027681	2.194244
109.942704	1320.776237	0.600567	0.027547	2.201757
110.919751	1331.778588	0.605572	0.027361	2.209330
111.516405	1342.879757	0.610576	0.027246	2.216858
112.213695	1353.881733	0.615581	0.027112	2.224317
112.884863	1364.900390	0.620586	0.026984	2.231756
113.318024	1375.978603	0.625591	0.026900	2.239156
113.975718	1386.952952	0.630595	0.026773	2.246513
114.500102	1398.022963	0.635600	0.026672	2.253879
115.076383	1409.019065	0.640605	0.026561	2.261185
115.799772	1420.043061	0.645610	0.026423	2.268516
116.193022	1431.105682	0.650614	0.026346	2.275777
116.489792	1442.131856	0.655619	0.026288	2.282971
117.161062	1453.092986	0.660624	0.026159	2.290180
117.829283	1464.157465	0.665628	0.026031	2.297433
118.393661	1475.170101	0.670633	0.025923	2.304607
118.932292	1486.209913	0.675638	0.025819	2.311770
119.484139	1497.242634	0.680643	0.025713	2.318909
119.920051	1508.265784	0.685647	0.025628	2.325996
120.373323	1519.313052	0.690652	0.025540	2.333080
120.888079	1530.291432	0.695657	0.025441	2.340111
121.526907	1541.318701	0.700661	0.025318	2.347178
122.128171	1552.364752	0.705666	0.025203	2.354228
122.637897	1563.371633	0.710671	0.025104	2.361213
123.027029	1574.442536	0.715676	0.025029	2.368192
123.660647	1585.428918	0.720680	0.024907	2.375148
124.131305	1596.431923	0.725685	0.024816	2.382060
124.874233	1607.473452	0.730690	0.024674	2.389032
125.286022	1618.524824	0.735695	0.024594	2.395922
125.555742	1629.541417	0.740699	0.024540	2.402742
125.931264	1640.592183	0.745704	0.024467	2.409585
126.416425	1651.578221	0.750709	0.024374	2.416391
127.144391	1662.571139	0.755713	0.024234	2.423230
127.510432	1673.636518	0.760718	0.024163	2.430021
128.115632	1684.634578	0.765723	0.024047	2.436801
128.635440	1695.675081	0.770728	0.023946	2.443570
129.236167	1706.694530	0.775732	0.023831	2.450323
129.886980	1717.682300	0.780737	0.023706	2.457048
130.347258	1728.759251	0.785742	0.023617	2.463771
130.955952	1739.740416	0.790747	0.023500	2.470448
131.467306	1750.803898	0.795751	0.023401	2.477136
131.876106	1761.815151	0.800756	0.023322	2.483755
132.249707	1772.854390	0.805761	0.023249	2.490366
132.645825	1783.861950	0.810765	0.023172	2.496945
133.106727	1794.889466	0.815770	0.023083	2.503531
133.594802	1805.893182	0.820775	0.022988	2.510091
134.014778	1816.935963	0.825780	0.022907	2.516643
134.424189	1827.946856	0.830784	0.022827	2.523157
134.906104	1838.979121	0.835789	0.022734	2.529681
135.556931	1849.966256	0.840794	0.022609	2.536193
136.152817	1861.008684	0.845799	0.022495	2.542711
136.860057	1872.006487	0.850803	0.022359	2.549206
137.270551	1883.073908	0.855808	0.022280	2.555669
137.863060	1894.055823	0.860813	0.022166	2.562101
138.174801	1905.123726	0.865817	0.022104	2.568514
138.700006	1916.182372	0.870822	0.022003	2.574945
138.830415	1927.182499	0.875827	0.021976	2.581253
139.436915	1938.151287	0.880832	0.021859	2.587616
139.651868	1949.220338	0.885836	0.021816	2.593948
140.061019	1960.201235	0.890841	0.021737	2.600250
140.402311	1971.236066	0.895846	0.021670	2.606555
140.975537	1982.242898	0.900850	0.021560	2.612870
141.551836	1993.274218	0.905855	0.021449	2.619185
141.887382	2004.289722	0.910860	0.021383	2.625432
142.520194	2015.306124	0.915865	0.021262	2.631718
142.878773	2026.342195	0.920869	0.021192	2.637951
143.362646	2037.358168	0.925874	0.021098	2.644180
143.742540	2048.366760	0.930879	0.021024	2.650372
144.378202	2059.370304	0.935884	0.020902	2.656591
144.710559	2070.418774	0.940888	0.020837	2.662767
145.224380	2081.396069	0.945893	0.020738	2.668922
145.686783	2092.429320	0.950898	0.020649	2.675084
146.164166	2103.467956	0.955902	0.020556	2.681237
146.585637	2114.481364	0.960907	0.020474	2.687352
146.909143	2125.518887	0.965912	0.020411	2.693450
147.187051	2136.516723	0.970917	0.020356	2.699504
147.543511	2147.562967	0.975921	0.020286	2.705584
148.000053	2158.555780	0.980926	0.020198	2.711639
148.481427	2169.573986	0.985931	0.020105	2.717698
148.998961	2180.595035	0.990936	0.020005	2.723752
149.347972	2191.651518	0.995940	0.019937	2.729782
149.769345	2202.630085	1.000945	0.019855	2.735769
150.098536	2213.664547	1.005950	0.019791	2.741757
150.620675	2224.672272	1.010954	0.019690	2.747750
151.107704	2235.700534	1.015959	0.019596	2.753736
151.348253	2246.738237	1.020964	0.019548	2.759671
151.729164	2257.744317	1.025969	0.019474	2.765601
151.996869	2268.781135	1.030973	0.019421	2.771515
152.379203	2279.772457	1.035978	0.019346	2.777412
152.860252	2290.791598	1.040983	0.019253	2.783327
153.301805	2301.824635	1.045988	0.019168	2.789230
153.646734	2312.851868	1.050992	0.019100	2.795101
154.231748	2323.859398	1.055997	0.018988	2.800990
154.785988	2334.851590	1.061002	0.018881	2.806852
155.393914	2345.907415	1.066006	0.018764	2.812744
155.761773	2356.899789	1.071011	0.018693	2.818552
156.227177	2367.943703	1.076016	0.018603	2.824390
156.536054	2378.986364	1.081021	0.018542	2.830190
156.847296	2389.979759	1.086025	0.018481	2.835953
157.358984	2400.997722	1.091030	0.018382	2.841749
157.760873	2412.009959	1.096035	0.018304	2.847512
158.183244	2423.045323	1.101039	0.018222	2.853279
158.405460	2434.067096	1.106044	0.018177	2.858996
158.751789	2445.077169	1.111049	0.018110	2.864714
159.191589	2456.094858	1.116054	0.018024	2.870440
159.448506	2467.115743	1.121058	0.017974	2.876127
160.198230	2478.119625	1.126063	0.017830	2.881872
160.626166	2489.143588	1.131068	0.017747	2.887564
161.056290	2500.194666	1.136073	0.017664	2.893260
161.271154	2511.187733	1.141077	0.017621	2.898881
161.954615	2522.193698	1.146082	0.017490	2.904570
162.280004	2533.223048	1.151087	0.017426	2.910205
162.627103	2544.251439	1.156091	0.017358	2.915832
162.953838	2555.284838	1.161096	0.017294	2.921446
163.430620	2566.257406	1.166101	0.017202	2.927043
163.817843	2577.316793	1.171106	0.017126	2.932658
163.914841	2588.330478	1.176110	0.017105	2.938196
164.589081	2599.306061	1.181115	0.016976	2.943792
165.080112	2610.374680	1.186120	0.016881	2.949396
165.402405	2621.380817	1.191125	0.016818	2.954932
165.699897	2632.407334	1.196129	0.016760	2.960464
165.915696	2643.411027	1.201134	0.016716	2.965962
166.425651	2654.466629	1.206139	0.016618	2.971520
166.874252	2665.409272	1.211143	0.016531	2.977002
167.360978	2676.464820	1.216148	0.016437	2.982536
167.684484	2687.478594	1.221153	0.016374	2.988014
168.010309	2698.531934	1.226158	0.016310	2.993502
168.119633	2709.533190	1.231162	0.016286	2.998922
168.527430	2720.530806	1.236167	0.016207	3.004374
169.167557	2731.558722	1.241172	0.016084	3.009866
169.699080	2742.562772	1.246177	0.015982	3.015320
169.908243	2753.611163	1.251181	0.015940	3.020738
170.372958	2764.610606	1.256186	0.015850	3.026160
170.863938	2775.619846	1.261191	0.015755	3.031581
171.043330	2786.680861	1.266195	0.015719	3.036971
171.320067	2797.664819	1.271200	0.015664	3.042329
171.829397	2808.681640	1.276205	0.015566	3.047727
172.112926	2819.714782	1.281210	0.015510	3.053091
172.524743	2830.729342	1.286214	0.015430	3.058455
172.935087	2841.722533	1.291219	0.015350	3.063798
173.469301	2852.760317	1.296224	0.015247	3.069172
173.765275	2863.779369	1.301228	0.015189	3.074492
174.184477	2874.802750	1.306233	0.015108	3.079823
174.557521	2885.796567	1.311238	0.015035	3.085125
174.931904	2896.853890	1.316243	0.014962	3.090447
175.230300	2907.850099	1.321247	0.014903	3.095720
175.850819	2918.833767	1.326252	0.014784	3.101024
176.095138	2929.890922	1.331257	0.014735	3.106301
176.444616	2940.908320	1.336262	0.014667	3.111564
176.659017	2951.922492	1.341266	0.014624	3.116798
177.179348	2962.916789	1.346271	0.014524	3.122056
177.454504	2973.970621	1.351276	0.014469	3.127300
178.015104	2984.975171	1.356280	0.014361	3.132551
178.323274	2995.987186	1.361285	0.014301	3.137761
178.774495	3006.997786	1.366290	0.014214	3.142982
179.175307	3018.023946	1.371295	0.014136	3.148195
179.528620	3029.051296	1.376299	0.014067	3.153393
180.002706	3040.056449	1.381304	0.013975	3.158588
180.289920	3051.079905	1.386309	0.013918	3.163758
180.528893	3062.104878	1.391314	0.013871	3.168913
180.667553	3073.137642	1.396318	0.013842	3.174050
181.008401	3084.105097	1.401323	0.013775	3.179176
183.228787	3094.895697	1.406328	0.013356	3.184465
185.988527	3106.069363	1.411332	0.012835	3.189993
187.054432	3117.161137	1.416337	0.012633	3.195247
187.518117	3128.202237	1.421342	0.012543	3.200388
187.792897	3139.231423	1.426347	0.012489	3.205490
187.976189	3150.252555	1.431351	0.012451	3.210568
188.368366	3161.237578	1.436356	0.012375	3.215649
188.730102	3172.264922	1.441361	0.012305	3.220737
189.139802	3183.268127	1.446366	0.012225	3.225813
189.419531	3194.299235	1.451370	0.012170	3.230876
190.005830	3205.298529	1.456375	0.012057	3.235956
190.624719	3216.295991	1.461380	0.011938	3.241032
191.195040	3227.355648	1.466384	0.011828	3.246122
191.547989	3238.373710	1.471389	0.011759	3.251157
191.775815	3249.399597	1.476394	0.011714	3.256171
192.050410	3260.405732	1.481399	0.011660	3.261174
192.407916	3271.427427	1.486403	0.011590	3.266187
192.738750	3282.428244	1.491408	0.011525	3.271180
193.181120	3293.443447	1.496413	0.011439	3.276186
193.583940	3304.459409	1.501417	0.011361	3.281179
194.361788	3315.477373	1.506422	0.011212	3.286214
194.807941	3326.487633	1.511427	0.011126	3.291195
195.400101	3337.516727	1.516432	0.011012	3.296195
195.994852	3348.494451	1.521436	0.010898	3.301165
196.501162	3359.583293	1.526441	0.010800	3.306165
196.746004	3370.564221	1.531446	0.010751	3.311077
197.275258	3381.598397	1.536451	0.010649	3.316041
197.867485	3392.566889	1.541455	0.010535	3.320976
198.426654	3403.626629	1.546460	0.010428	3.325940
198.889850	3414.620341	1.551465	0.010338	3.330856
199.166183	3425.683668	1.556469	0.010284	3.335771
199.372087	3436.660106	1.561474	0.010242	3.340632
199.960546	3447.692358	1.566479	0.010129	3.345558
200.230427	3458.699801	1.571484	0.010076	3.350426
200.861232	3469.715043	1.576488	0.009955	3.355335
201.316107	3480.734543	1.581493	0.009867	3.360217
201.645162	3491.773782	1.586498	0.009802	3.365085
201.784294	3502.792582	1.591503	0.009773	3.369913
202.196425	3513.776428	1.596507	0.009693	3.374753
202.419509	3524.815147	1.601512	0.009649	3.379586
202.930565	3535.824367	1.606517	0.009550	3.384435
203.145385	3546.850801	1.611521	0.009507	3.389248
203.587108	3557.844050	1.616526	0.009421	3.394068
203.848765	3568.883475	1.621531	0.009370	3.398878
204.363973	3579.873780	1.626536	0.009270	3.403692
204.856970	3590.895747	1.631540	0.009175	3.408509
205.141365	3601.912185	1.636545	0.009119	3.413292
205.545939	3612.929043	1.641550	0.009040	3.418082
205.979010	3623.950915	1.646555	0.008956	3.422872
206.270360	3634.974153	1.651559	0.008899	3.427638
206.705039	3645.973968	1.656564	0.008814	3.432405
207.068529	3657.004117	1.661569	0.008744	3.437169
207.454976	3668.014327	1.666573	0.008668	3.441921
207.680726	3679.044328	1.671578	0.008623	3.446656
208.026833	3690.050584	1.676583	0.008556	3.451389
208.397623	3701.063260	1.681588	0.008483	3.456120
209.015714	3712.059182	1.686592	0.008365	3.460867
209.525129	3723.102942	1.691597	0.008266	3.465614
209.949096	3734.101099	1.696602	0.008184	3.470326
210.293223	3745.137296	1.701606	0.008117	3.475038
210.757653	3756.141713	1.706611	0.008027	3.479744
211.172227	3767.177367	1.711616	0.007946	3.484451
211.693762	3778.177528	1.716621	0.007846	3.489149
212.075775	3789.198563	1.721625	0.007771	3.493834
212.406426	3800.219821	1.726630	0.007706	3.498506
212.656945	3811.225941	1.731635	0.007657	3.503156
213.060698	3822.256495	1.736640	0.007578	3.507828
213.278338	3833.256652	1.741644	0.007535	3.512459
213.725243	3844.280040	1.746649	0.007448	3.517120
213.936615	3855.282336	1.751654	0.007406	3.521740
214.375357	3866.328090	1.756658	0.007321	3.526397
214.508283	3877.354162	1.761663	0.007293	3.531005
215.066171	3888.312516	1.766668	0.007186	3.535627
215.410728	3899.353316	1.771673	0.007118	3.540252
215.868806	3910.391697	1.776677	0.007030	3.544884
216.036365	3921.387048	1.781682	0.006995	3.549459
216.490326	3932.409955	1.786687	0.006907	3.554071
216.692895	3943.418692	1.791692	0.006867	3.558644
217.198439	3954.457731	1.796696	0.006769	3.563257
217.259673	3965.465230	1.801701	0.006755	3.567801
217.679365	3976.447297	1.806706	0.006673	3.572369
218.039676	3987.490915	1.811710	0.006603	3.576949
218.403350	3998.484974	1.816715	0.006532	3.581504
218.826593	4009.519282	1.821720	0.006450	3.586076
219.279937	4020.507368	1.826725	0.006362	3.590626
219.726322	4031.550617	1.831729	0.006276	3.595192
220.087534	4042.569145	1.836734	0.006205	3.599733
220.413637	4053.604400	1.841739	0.006141	3.604272
220.799530	4064.592681	1.846744	0.006066	3.608791
221.019679	4075.617763	1.851748	0.006022	3.613302
221.465385	4086.633671	1.856753	0.005936	3.617828
221.657717	4097.650354	1.861758	0.005897	3.622321
222.279275	4108.703250	1.866762	0.005778	3.626870
222.599085	4119.707935	1.871767	0.005715	3.631361
222.932877	4130.742906	1.876772	0.005649	3.635859
223.050484	4141.761698	1.881777	0.005625	3.640323
223.559442	4152.772687	1.886781	0.005526	3.644820
223.827881	4163.765145	1.891786	0.005473	3.649277
224.240851	4174.799896	1.896791	0.005393	3.653762
224.516904	4185.819389	1.901795	0.005339	3.658221
224.936572	4196.844319	1.906800	0.005257	3.662691
225.185152	4207.856427	1.911805	0.005208	3.667133
225.620483	4218.851752	1.916810	0.005123	3.671582
225.848240	4229.887959	1.921814	0.005078	3.676020
226.032628	4240.889651	1.926819	0.005041	3.680435
226.329855	4251.921349	1.931824	0.004982	3.684868
226.706302	4262.922352	1.936829	0.004909	3.689291
226.973437	4273.930150	1.941833	0.004856	3.693701
227.492619	4284.949958	1.946838	0.004756	3.698136
227.782489	4295.994490	1.951843	0.004699	3.702552
228.491254	4306.969320	1.956847	0.004563	3.706978
228.814752	4318.003747	1.961852	0.004499	3.711382
229.321050	4328.998520	1.966857	0.004402	3.715785
229.714697	4340.041564	1.971862	0.004325	3.720189
229.920743	4351.077854	1.976866	0.004284	3.724566
230.259315	4362.048598	1.981871	0.004217	3.728926
230.479673	4373.094807	1.986876	0.004173	3.733299
230.822866	4384.100163	1.991881	0.004106	3.737662
231.095493	4395.124978	1.996885	0.004052	3.742021
231.407218	4406.141656	2.001890	0.003991	3.746376
231.853081	4417.117728	2.006895	0.003905	3.750723
