Wed Nov 23 17:31:11 2022

Number of Points = 2200
Depth (nm)	Load (µN)	Time (s)	Depth (V)	Load (V)
-3.107545	0.486390	0.000000	0.059974	0.875967
0.000000	6.349493	0.005005	0.059390	0.887753
2.477342	15.347637	0.010009	0.058923	0.904145
3.857714	26.110738	0.015014	0.058661	0.922423
5.302107	37.196989	0.020019	0.058387	0.940891
6.363240	48.428092	0.025024	0.058185	0.959005
7.541070	59.661486	0.030028	0.057962	0.976852
8.215251	70.957917	0.035033	0.057832	0.994194
9.360265	82.039448	0.040038	0.057615	1.011178
11.221241	93.045220	0.045043	0.057263	1.028153
14.168446	103.904513	0.050047	0.056707	1.045212
15.931639	115.309656	0.055052	0.056374	1.062146
17.380385	126.584516	0.060057	0.056099	1.078474
18.540940	137.808731	0.065061	0.055878	1.094346
19.684133	149.009965	0.070066	0.055661	1.109950
20.469024	160.197080	0.075071	0.055511	1.125146
21.545504	171.302372	0.080076	0.055306	1.140171
22.507371	182.421618	0.085080	0.055123	1.154964
23.734968	193.491208	0.090085	0.054890	1.169629
24.823597	204.630082	0.095090	0.054683	1.184135
25.998497	215.739946	0.100094	0.054460	1.198468
27.235152	226.802310	0.105099	0.054225	1.212600
28.691099	237.919596	0.110104	0.053949	1.226732
29.699385	249.066695	0.115109	0.053757	1.240542
31.176408	260.091752	0.120113	0.053477	1.254257
32.258596	271.244902	0.125118	0.053271	1.267805
33.482526	282.336022	0.130123	0.053039	1.281196
34.501153	293.468641	0.135128	0.052845	1.294410
35.706340	304.578306	0.140132	0.052616	1.307540
36.904960	315.621302	0.145137	0.052388	1.320462
37.912248	326.737107	0.150142	0.052197	1.333261
39.136551	337.741901	0.155146	0.051964	1.345903
40.327816	348.862239	0.160151	0.051738	1.358539
41.251701	359.980762	0.165156	0.051562	1.370951
42.488308	371.019779	0.170161	0.051327	1.383288
43.028230	382.204677	0.175165	0.051223	1.395401
44.571845	393.081145	0.180170	0.050931	1.407468
45.640195	404.260395	0.185175	0.050727	1.419568
46.748634	415.300828	0.190180	0.050517	1.431436
47.842100	426.399003	0.195184	0.050309	1.443260
48.723385	437.490148	0.200189	0.050141	1.454902
49.651632	448.554047	0.205194	0.049964	1.466440
50.594741	459.624072	0.210198	0.049784	1.477900
51.180868	470.723471	0.215203	0.049671	1.489172
52.318532	481.721353	0.220208	0.049455	1.500455
53.024309	492.833406	0.225213	0.049320	1.511613
54.139436	503.828546	0.230217	0.049108	1.522717
54.887790	514.945129	0.235222	0.048965	1.533731
55.834475	525.985007	0.240227	0.048784	1.544661
56.667273	537.038644	0.245232	0.048625	1.555488
57.831040	548.054393	0.250236	0.048404	1.566315
58.496097	559.192474	0.255241	0.048277	1.577015
59.535978	570.156385	0.260246	0.048079	1.587605
60.558448	581.232356	0.265250	0.047884	1.598222
61.508590	592.292242	0.270255	0.047703	1.608730
62.165190	603.415950	0.275260	0.047577	1.619132
63.007467	614.418541	0.280265	0.047417	1.629418
63.575243	625.516113	0.285269	0.047307	1.639636
64.384578	636.520319	0.290274	0.047153	1.649783
65.040735	647.586003	0.295279	0.047027	1.659875
66.056921	658.577942	0.300283	0.046834	1.669953
66.858404	669.682206	0.305288	0.046680	1.680002
67.809804	680.675374	0.310293	0.046499	1.689940
68.882146	691.724861	0.315298	0.046295	1.699906
69.837315	702.757776	0.320302	0.046113	1.709763
70.505151	713.877617	0.325307	0.045985	1.719550
71.378808	724.878866	0.330312	0.045818	1.729243
71.914697	735.987427	0.335317	0.045715	1.738870
72.663740	746.975584	0.340321	0.045572	1.748407
73.587997	758.009260	0.345326	0.045396	1.757981
74.280497	769.075869	0.350331	0.045263	1.767462
74.836079	780.154113	0.355335	0.045156	1.776862
75.309480	791.176652	0.360340	0.045065	1.786143
76.250163	802.154239	0.365345	0.044885	1.795473
77.101423	813.224981	0.370350	0.044723	1.804805
77.807412	824.274460	0.375354	0.044588	1.814030
78.654684	835.293317	0.380359	0.044426	1.823223
79.501979	846.354375	0.385364	0.044264	1.832404
80.243519	857.374373	0.390369	0.044122	1.841476
81.177385	868.415908	0.395373	0.043944	1.850574
81.926170	879.461773	0.400378	0.043801	1.859579
82.549924	890.515400	0.405383	0.043681	1.868512
83.314204	901.541456	0.410387	0.043535	1.877419
83.807138	912.615583	0.415392	0.043440	1.886247
84.743281	923.586599	0.420397	0.043262	1.895074
85.398831	934.658449	0.425402	0.043136	1.903862
86.160128	945.679700	0.430406	0.042990	1.912599
86.706579	956.763141	0.435411	0.042885	1.921286
87.557454	967.730721	0.440416	0.042723	1.929925
88.073567	978.833482	0.445421	0.042623	1.938541
88.802249	989.806128	0.450425	0.042484	1.947075
89.469226	1000.867235	0.455430	0.042356	1.955623
90.299679	1011.866003	0.460435	0.042197	1.964128
91.237270	1022.901801	0.465439	0.042018	1.972652
92.248605	1033.945328	0.470444	0.041826	1.981164
92.715569	1045.018819	0.475449	0.041736	1.989522
93.610774	1056.023037	0.480454	0.041565	1.997902
94.176335	1067.104935	0.485458	0.041456	2.006221
94.856302	1078.113507	0.490463	0.041326	2.014480
95.653434	1089.106340	0.495468	0.041173	2.022723
96.286032	1100.195970	0.500472	0.041052	2.030961
96.825073	1111.220720	0.505477	0.040948	2.039096
97.549050	1122.232333	0.510482	0.040810	2.047234
97.901015	1133.315948	0.515487	0.040741	2.055300
98.634112	1144.291459	0.520491	0.040600	2.063351
99.106197	1155.326390	0.525496	0.040509	2.071348
99.893068	1166.372217	0.530501	0.040359	2.079399
100.493188	1177.388290	0.535506	0.040243	2.087352
101.386567	1188.417205	0.540510	0.040073	2.095354
101.756512	1199.469111	0.545515	0.040001	2.103217
102.430457	1210.471088	0.550520	0.039872	2.111087
103.101222	1221.498796	0.555524	0.039743	2.118945
103.755555	1232.557219	0.560529	0.039618	2.126791
104.129918	1243.600798	0.565534	0.039545	2.134532
104.763528	1254.572879	0.570539	0.039423	2.142257
105.447198	1265.623079	0.575543	0.039292	2.150018
106.216658	1276.653675	0.580548	0.039145	2.157758
106.820827	1287.684225	0.585553	0.039029	2.165432
107.417541	1298.749955	0.590558	0.038914	2.173100
107.638633	1309.766651	0.595562	0.038870	2.180623
108.484260	1320.732185	0.600567	0.038709	2.188227
109.155754	1331.808954	0.605572	0.038580	2.195839
109.759070	1342.826291	0.610576	0.038464	2.203370
110.244318	1353.854404	0.615581	0.038370	2.210856
111.013275	1364.862724	0.620586	0.038223	2.218367
111.480198	1375.917915	0.625591	0.038133	2.225815
112.040100	1386.963403	0.630595	0.038025	2.233253
112.067779	1398.024832	0.635600	0.038017	2.240559
112.728058	1408.980663	0.640605	0.037890	2.247911
113.244511	1420.051790	0.645610	0.037791	2.255282
113.950690	1431.006478	0.650614	0.037656	2.262595
114.619455	1442.062908	0.655619	0.037527	2.269943
115.346440	1453.070349	0.660624	0.037388	2.277247
116.015214	1464.119563	0.665628	0.037260	2.284541
116.453226	1475.156744	0.670633	0.037175	2.291755
117.022698	1486.160769	0.675638	0.037065	2.298954
117.606114	1497.207045	0.680643	0.036953	2.306159
118.370133	1508.184872	0.685647	0.036807	2.313336
119.178184	1519.236652	0.690652	0.036653	2.320548
119.570020	1530.296873	0.695657	0.036577	2.327654
120.127772	1541.317640	0.700661	0.036469	2.334749
120.468786	1552.327141	0.705666	0.036402	2.341769
121.021775	1563.361033	0.710671	0.036296	2.348828
121.493914	1574.374571	0.715676	0.036205	2.355835
122.259545	1585.380952	0.720680	0.036058	2.362878
122.641849	1596.434920	0.725685	0.035984	2.369851
123.272613	1607.456259	0.730690	0.035863	2.376834
123.820364	1618.470595	0.735695	0.035757	2.383774
124.392114	1629.492271	0.740699	0.035647	2.390704
124.634218	1640.553310	0.745704	0.035599	2.397571
125.416547	1651.524423	0.750709	0.035449	2.404472
125.762536	1662.585678	0.755713	0.035382	2.411321
126.449270	1673.588597	0.760718	0.035250	2.418182
126.814946	1684.635175	0.765723	0.035179	2.424987
127.267435	1695.645225	0.770728	0.035091	2.431767
127.790048	1706.668594	0.775732	0.034990	2.438550
128.545136	1717.646222	0.780737	0.034846	2.445333
129.015602	1728.725585	0.785742	0.034755	2.452102
129.589606	1739.733464	0.790747	0.034645	2.458829
129.897963	1750.765808	0.795751	0.034584	2.465501
130.505975	1761.771168	0.800756	0.034467	2.472197
131.128456	1772.794417	0.805761	0.034348	2.478888
131.746533	1783.835344	0.810765	0.034229	2.485570
132.205875	1794.853661	0.815770	0.034140	2.492190
132.648124	1805.881340	0.820775	0.034054	2.498795
133.039435	1816.906636	0.825780	0.033978	2.505371
133.602830	1827.915926	0.830784	0.033870	2.511953
134.032927	1838.952347	0.835789	0.033786	2.518508
134.538737	1849.952178	0.840794	0.033689	2.525039
135.050232	1860.988482	0.845799	0.033590	2.531576
135.488995	1872.027911	0.850803	0.033505	2.538083
136.031118	1883.012246	0.855808	0.033400	2.544561
136.616824	1894.047160	0.860813	0.033288	2.551060
137.059590	1905.077369	0.865817	0.033202	2.557513
137.564972	1916.096327	0.870822	0.033104	2.563955
138.159772	1927.124676	0.875827	0.032990	2.570402
138.362304	1938.218996	0.880832	0.032949	2.576798
138.971793	1949.148710	0.885836	0.032832	2.583160
139.497969	1960.180679	0.890841	0.032731	2.589548
140.114713	1971.177739	0.895846	0.032612	2.595917
140.487702	1982.257483	0.900850	0.032540	2.602273
140.914190	1993.251057	0.905855	0.032457	2.608574
141.441473	2004.261645	0.910860	0.032355	2.614888
142.073571	2015.266849	0.915865	0.032234	2.621202
142.670707	2026.307852	0.920869	0.032119	2.627515
143.121824	2037.333957	0.925874	0.032032	2.633778
143.346313	2048.366504	0.930879	0.031987	2.639989
143.813672	2059.357397	0.935884	0.031896	2.646206
144.367413	2070.364080	0.940888	0.031790	2.652431
144.741260	2081.403710	0.945893	0.031717	2.658629
145.417715	2092.385187	0.950898	0.031587	2.664833
145.854986	2103.452209	0.955902	0.031503	2.671027
146.228595	2114.465979	0.960907	0.031430	2.677167
146.657152	2125.467077	0.965912	0.031347	2.683295
147.263756	2136.494958	0.970917	0.031230	2.689455
147.493636	2147.530699	0.975921	0.031184	2.695540
148.162141	2158.508373	0.980926	0.031056	2.701654
148.509004	2169.587099	0.985931	0.030988	2.707755
148.870828	2180.577380	0.990936	0.030918	2.713796
149.395172	2191.598340	0.995940	0.030816	2.719868
149.937915	2202.615146	1.000945	0.030712	2.725927
150.526236	2213.648014	1.005950	0.030599	2.731989
150.747789	2224.670272	1.010954	0.030554	2.737969
151.225808	2235.669973	1.015959	0.030462	2.743968
151.689624	2246.686590	1.020964	0.030372	2.749960
152.170062	2257.734864	1.025969	0.030279	2.755959
152.682220	2268.731211	1.030973	0.030181	2.761922
153.086325	2279.764139	1.035978	0.030102	2.767873
153.438425	2290.784746	1.040983	0.030033	2.773797
153.739713	2301.815229	1.045988	0.029974	2.779704
154.094134	2312.811081	1.050992	0.029905	2.785589
154.704454	2323.840001	1.055997	0.029787	2.791522
155.102232	2334.869397	1.061002	0.029710	2.797407
155.426965	2345.893636	1.066006	0.029646	2.803265
155.825842	2356.908739	1.071011	0.029569	2.809117
156.065255	2367.940282	1.076016	0.029521	2.814941
156.467436	2378.923481	1.081021	0.029443	2.820753
156.988962	2389.972381	1.086025	0.029342	2.826607
157.502538	2400.948929	1.091030	0.029243	2.832409
157.935188	2412.000737	1.096035	0.029159	2.838226
158.388065	2423.012270	1.101039	0.029072	2.844013
158.653733	2434.065466	1.106044	0.029019	2.849779
159.163360	2445.030304	1.111049	0.028921	2.855528
159.900627	2456.057238	1.116054	0.028780	2.861332
160.309085	2467.091096	1.121058	0.028700	2.867076
160.742977	2478.137910	1.126063	0.028616	2.872820
161.092263	2489.123677	1.131068	0.028548	2.878507
161.557030	2500.138207	1.136073	0.028458	2.884215
161.959478	2511.185088	1.141077	0.028380	2.889919
162.436198	2522.214298	1.146082	0.028288	2.895614
162.557379	2533.233538	1.151087	0.028262	2.901238
163.173856	2544.206841	1.156091	0.028144	2.906904
163.674999	2555.236363	1.161096	0.028047	2.912569
163.864411	2566.284431	1.166101	0.028009	2.918185
164.361461	2577.274221	1.171106	0.027913	2.923808
164.816407	2588.313495	1.176110	0.027825	2.929438
165.291671	2599.293745	1.181115	0.027733	2.935031
165.573226	2610.354533	1.186120	0.027677	2.940623
165.976925	2621.349593	1.191125	0.027599	2.946191
166.464602	2632.379134	1.196129	0.027504	2.951778
166.795473	2643.381962	1.201134	0.027440	2.957318
167.253324	2654.426861	1.206139	0.027351	2.962887
167.675905	2665.426433	1.211143	0.027269	2.968417
167.856068	2676.479536	1.216148	0.027232	2.973928
168.197868	2687.454546	1.221153	0.027166	2.979413
168.839110	2698.474654	1.226158	0.027042	2.984956
169.215585	2709.513021	1.231162	0.026969	2.990457
169.519874	2720.555232	1.236167	0.026909	2.995940
169.812118	2731.534550	1.241172	0.026852	3.001380
170.337359	2742.545419	1.246177	0.026750	3.006859
170.735491	2753.583337	1.251181	0.026673	3.012324
171.023688	2764.595552	1.256186	0.026616	3.017749
171.618840	2775.593289	1.261191	0.026502	3.023203
171.964330	2786.658931	1.266195	0.026434	3.028643
172.370795	2797.636583	1.271200	0.026355	3.034039
172.705597	2808.694342	1.276205	0.026290	3.039454
173.135511	2819.662444	1.281210	0.026206	3.044830
173.710568	2830.718778	1.286214	0.026096	3.050260
174.074164	2841.725944	1.291219	0.026025	3.055625
174.397624	2852.759008	1.296224	0.025961	3.060988
174.800163	2863.747266	1.301228	0.025883	3.066332
175.066437	2874.774918	1.306233	0.025830	3.071665
175.614269	2885.776664	1.311238	0.025725	3.077017
176.049268	2896.831725	1.316243	0.025640	3.082369
176.377223	2907.837545	1.321247	0.025576	3.087672
176.759393	2918.835412	1.326252	0.025502	3.092971
177.316791	2929.847844	1.331257	0.025394	3.098291
177.811048	2940.885372	1.336262	0.025299	3.103606
178.000218	2951.919374	1.341266	0.025261	3.108867
178.554247	2962.894721	1.346271	0.025154	3.114142
179.080756	2973.930454	1.351276	0.025053	3.119433
179.333555	2984.984187	1.356280	0.025002	3.124685
179.840482	2995.974558	1.361285	0.024905	3.129934
180.103735	3007.006551	1.366290	0.024852	3.135159
180.268363	3018.011737	1.371295	0.024819	3.140350
180.618411	3029.050769	1.376299	0.024750	3.145573
180.955270	3040.026945	1.381304	0.024684	3.150757
181.292337	3051.062284	1.386309	0.024618	3.155959
181.883295	3062.037733	1.391314	0.024505	3.161160
182.481763	3073.113551	1.396318	0.024390	3.166400
182.794923	3084.111729	1.401323	0.024328	3.171556
183.036417	3095.132930	1.406328	0.024280	3.176704
183.642432	3106.123789	1.411332	0.024164	3.181880
184.066444	3117.161972	1.416337	0.024082	3.187044
184.315639	3128.188287	1.421342	0.024032	3.192170
184.640393	3139.206522	1.426347	0.023968	3.197295
185.032971	3150.207434	1.431351	0.023892	3.202413
185.477827	3161.249223	1.436356	0.023806	3.207548
185.644000	3172.265501	1.441361	0.023772	3.212626
186.160129	3183.237417	1.446366	0.023672	3.217722
186.747325	3194.256524	1.451370	0.023559	3.222841
187.356108	3205.297771	1.456375	0.023442	3.227964
187.687689	3216.314035	1.461380	0.023378	3.233031
188.076025	3227.347310	1.466384	0.023302	3.238106
188.481521	3238.340415	1.471389	0.023223	3.243156
188.881105	3249.390639	1.476394	0.023145	3.248224
189.260725	3260.380166	1.481399	0.023071	3.253254
189.843403	3271.394938	1.486403	0.022959	3.258313
190.100956	3282.421314	1.491408	0.022908	3.263328
190.390952	3293.449361	1.496413	0.022851	3.268339
190.802339	3304.459796	1.501417	0.022771	3.273351
191.457252	3315.453146	1.506422	0.022646	3.278379
191.829494	3326.478185	1.511427	0.022573	3.283376
192.456523	3337.513018	1.516432	0.022453	3.288404
192.646475	3348.526260	1.521436	0.022414	3.293357
193.258698	3359.521687	1.526441	0.022297	3.298349
193.630120	3370.566672	1.531446	0.022224	3.303325
193.946039	3381.582092	1.536451	0.022162	3.308273
194.160220	3392.585699	1.541455	0.022119	3.313196
194.489171	3403.624586	1.546460	0.022055	3.318141
194.882074	3414.605749	1.551465	0.021978	3.323061
195.299236	3425.672879	1.556469	0.021897	3.328015
195.310809	3436.655039	1.561474	0.021893	3.332873
195.771032	3447.675425	1.566479	0.021803	3.337797
196.199307	3458.674109	1.571484	0.021720	3.342700
196.587597	3469.723379	1.576488	0.021645	3.347614
196.870727	3480.723739	1.581493	0.021589	3.352485
197.180708	3491.747036	1.586498	0.021528	3.357362
197.611938	3502.751779	1.591503	0.021444	3.362240
197.973057	3513.794097	1.596507	0.021374	3.367117
198.502745	3524.764617	1.601512	0.021272	3.371977
199.023590	3535.797637	1.606517	0.021171	3.376856
199.311442	3546.825073	1.611521	0.021115	3.381697
199.642005	3557.863794	1.616526	0.021050	3.386542
199.910218	3568.840490	1.621531	0.020997	3.391344
200.296814	3579.872591	1.626536	0.020922	3.396178
200.612028	3590.890275	1.631540	0.020860	3.400990
201.068275	3601.899639	1.636545	0.020771	3.405809
201.614676	3612.912897	1.641550	0.020666	3.410634
201.921059	3623.944016	1.646555	0.020606	3.415430
202.265960	3634.952657	1.651559	0.020538	3.420215
202.722798	3645.977131	1.656564	0.020450	3.425012
203.017287	3656.988451	1.661569	0.020392	3.429778
203.537564	3667.989095	1.666573	0.020292	3.434560
203.949695	3679.017333	1.671578	0.020212	3.439334
204.336550	3690.060260	1.676583	0.020136	3.444104
204.646213	3701.058335	1.681588	0.020075	3.448840
204.898927	3712.078048	1.686592	0.020025	3.453571
205.406416	3723.066207	1.691597	0.019927	3.458313
205.595927	3734.108472	1.696602	0.019889	3.463033
205.957733	3745.122170	1.701606	0.019818	3.467755
206.264882	3756.133877	1.706611	0.019758	3.472463
206.477465	3767.147021	1.711616	0.019715	3.477155
206.890473	3778.150434	1.716621	0.019635	3.481859
207.150238	3789.205272	1.721625	0.019584	3.486561
207.405393	3800.206956	1.726630	0.019533	3.491233
207.697796	3811.217862	1.731635	0.019476	3.495907
207.901210	3822.234732	1.736640	0.019435	3.500568
208.352238	3833.244119	1.741644	0.019347	3.505247
208.767297	3844.249438	1.746649	0.019267	3.509914
209.264602	3855.252571	1.751654	0.019171	3.514583
209.633351	3866.324497	1.756658	0.019099	3.519260
209.978631	3877.302809	1.761663	0.019031	3.523889
210.403368	3888.352085	1.766668	0.018949	3.528551
210.718788	3899.341925	1.771673	0.018887	3.533169
211.105677	3910.378055	1.776677	0.018812	3.537808
211.604493	3921.349856	1.781682	0.018715	3.542427
212.021975	3932.400591	1.786687	0.018634	3.547064
212.378869	3943.388416	1.791692	0.018564	3.551661
212.780783	3954.441237	1.796696	0.018486	3.556284
213.003514	3965.427304	1.801701	0.018442	3.560854
213.282430	3976.488904	1.806706	0.018387	3.565455
213.507206	3987.462285	1.811710	0.018342	3.570008
213.805880	3998.483816	1.816715	0.018283	3.574583
214.063659	4009.506446	1.821720	0.018232	3.579148
214.356090	4020.550800	1.826725	0.018174	3.583720
214.916493	4031.522409	1.831729	0.018067	3.588286
215.264219	4042.538072	1.836734	0.017999	3.592840
215.451531	4053.572069	1.841739	0.017961	3.597378
215.740933	4064.586755	1.846744	0.017904	3.601914
215.878039	4075.624154	1.851748	0.017875	3.606437
216.324450	4086.596047	1.856753	0.017789	3.610961
216.666561	4097.645954	1.861758	0.017722	3.615500
217.085147	4108.698136	1.866762	0.017640	3.620042
217.493642	4119.693462	1.871767	0.017561	3.624555
217.715789	4130.743147	1.876772	0.017517	3.629063
218.095117	4141.732677	1.881777	0.017443	3.633558
218.459358	4152.762537	1.886781	0.017372	3.638063
219.020657	4163.754967	1.891786	0.017264	3.642568
219.508229	4174.805002	1.896791	0.017169	3.647082
219.818822	4185.782727	1.901795	0.017108	3.651543
220.229988	4196.832903	1.906800	0.017029	3.656038
220.335786	4207.821528	1.911805	0.017006	3.660470
220.921639	4218.853335	1.916810	0.016893	3.664965
221.149757	4229.860269	1.921814	0.016848	3.669407
221.383090	4240.889504	1.926819	0.016801	3.673853
221.730835	4251.895235	1.931824	0.016733	3.678295
222.201623	4262.937766	1.936829	0.016642	3.682761
222.643149	4273.922790	1.941833	0.016557	3.687194
223.072262	4284.936423	1.946838	0.016473	3.691632
223.318318	4295.952759	1.951843	0.016425	3.696047
223.584064	4306.976556	1.956847	0.016372	3.700462
223.837266	4318.005236	1.961852	0.016322	3.704872
224.200798	4328.991769	1.966857	0.016251	3.709271
224.463625	4340.030491	1.971862	0.016199	3.713675
224.853005	4351.041747	1.976866	0.016123	3.718076
225.101180	4362.062805	1.981871	0.016074	3.722461
225.478288	4373.079428	1.986876	0.016000	3.726853
226.008378	4384.046759	1.991881	0.015898	3.731235
226.637728	4395.084959	1.996885	0.015777	3.735650
226.891365	4406.114149	2.001890	0.015727	3.740018
227.375873	4417.146846	2.006895	0.015633	3.744406
