Wed Nov 23 18:47:16 2022

Number of Points = 2200
Depth (nm)	Load (µN)	Time (s)	Depth (V)	Load (V)
-1.546479	0.680817	0.000000	0.036167	0.952551
0.000000	7.179576	0.005005	0.035875	0.963447
1.391528	16.364152	0.010009	0.035611	0.978193
3.150779	26.904381	0.015014	0.035279	0.994935
4.405543	38.034418	0.020019	0.035040	1.011985
5.637681	49.179789	0.025024	0.034806	1.028762
6.588563	60.417668	0.030028	0.034625	1.045253
7.538516	71.581049	0.035033	0.034444	1.061383
8.555100	82.744616	0.040038	0.034251	1.077304
10.368717	93.674447	0.045043	0.033908	1.093074
11.717190	104.921306	0.050047	0.033652	1.108812
12.568026	116.165441	0.055052	0.033489	1.124084
13.716271	127.202517	0.060057	0.033271	1.139025
16.604307	138.031280	0.065061	0.032727	1.154323
17.794902	149.423119	0.070066	0.032500	1.169342
19.709738	160.423688	0.075071	0.032138	1.184013
21.108761	171.651377	0.080076	0.031873	1.198551
22.722990	182.711089	0.085080	0.031568	1.212804
24.264568	193.870721	0.090085	0.031276	1.226979
25.561346	204.988842	0.095090	0.031029	1.240835
26.796562	216.126228	0.100094	0.030795	1.254534
27.857210	227.251983	0.105099	0.030593	1.267996
29.155812	238.336364	0.110104	0.030347	1.281368
30.353867	249.404221	0.115109	0.030119	1.294541
31.356615	260.601255	0.120113	0.029928	1.307645
32.677191	271.602450	0.125118	0.029678	1.320530
33.917722	282.662486	0.130123	0.029442	1.333321
34.985029	293.765372	0.135128	0.029239	1.345969
36.051435	304.890324	0.140132	0.029036	1.358522
37.075565	315.950001	0.145137	0.028841	1.370872
38.207074	327.022229	0.150142	0.028626	1.383166
39.187263	338.095711	0.155146	0.028440	1.395295
40.446181	349.151069	0.160151	0.028201	1.407405
41.199096	360.307661	0.165156	0.028057	1.419326
42.185710	371.329792	0.170161	0.027869	1.431096
43.009237	382.415227	0.175165	0.027712	1.442774
43.987859	393.475008	0.180170	0.027525	1.454388
45.138693	404.500514	0.185175	0.027307	1.465938
46.219411	415.575955	0.190180	0.027101	1.477421
47.010789	426.673787	0.195184	0.026950	1.488735
48.133653	437.697432	0.200189	0.026736	1.500006
49.093131	448.764700	0.205194	0.026554	1.511179
50.232106	459.832609	0.210198	0.026337	1.522331
50.976861	470.918339	0.215203	0.026195	1.533283
52.000478	481.972504	0.220208	0.026000	1.544223
53.130967	492.970201	0.225213	0.025785	1.555067
54.159509	504.065281	0.230217	0.025589	1.565894
54.901655	515.158556	0.235222	0.025447	1.576547
55.648320	526.214863	0.240227	0.025304	1.587096
56.847372	537.176618	0.245232	0.025077	1.597637
57.836355	548.275115	0.250236	0.024888	1.608165
58.642146	559.365366	0.255241	0.024734	1.618557
59.482838	570.416168	0.260246	0.024574	1.628857
59.996053	581.497836	0.265250	0.024475	1.639016
61.033347	592.471670	0.270255	0.024278	1.649181
62.025460	603.513140	0.275260	0.024089	1.659330
63.020770	614.564177	0.280265	0.023899	1.669426
63.762519	625.652691	0.285269	0.023757	1.679415
64.601613	636.702719	0.290274	0.023597	1.689341
65.142961	647.782082	0.295279	0.023493	1.699142
65.977635	658.783141	0.300283	0.023333	1.708909
66.814101	669.815660	0.305288	0.023174	1.718647
67.646633	680.873776	0.310293	0.023015	1.728351
68.528611	691.913280	0.315298	0.022847	1.737999
69.293675	702.955882	0.320302	0.022700	1.747562
70.072182	714.006364	0.325307	0.022551	1.757082
70.956943	725.034425	0.330312	0.022383	1.766564
71.585242	736.120740	0.335317	0.022262	1.775967
72.528986	747.103758	0.340321	0.022082	1.785328
73.298416	758.157646	0.345326	0.021935	1.794646
73.868802	769.247137	0.350331	0.021825	1.803889
74.666600	780.237947	0.355335	0.021673	1.813068
75.353128	791.308240	0.360340	0.021541	1.822234
75.975717	802.348701	0.365345	0.021422	1.831312
76.977788	813.329471	0.370350	0.021231	1.840403
77.541034	824.441945	0.375354	0.021123	1.849431
78.245312	835.458013	0.380359	0.020988	1.858378
78.964428	846.498727	0.385364	0.020850	1.867306
79.841955	857.502937	0.390369	0.020683	1.876205
80.405996	868.564373	0.395373	0.020574	1.885021
81.081466	879.632091	0.400378	0.020445	1.893831
81.546279	890.641060	0.405383	0.020355	1.902498
82.325632	901.681312	0.410387	0.020206	1.911233
83.094196	912.681933	0.415392	0.020059	1.919895
83.736004	923.765676	0.420397	0.019936	1.928548
84.415460	934.787579	0.425402	0.019805	1.937125
85.050141	945.805425	0.430406	0.019684	1.945649
85.750207	956.832119	0.435411	0.019549	1.954159
86.740235	967.837450	0.440416	0.019361	1.962691
87.393097	978.927403	0.445421	0.019236	1.971162
88.004700	989.959625	0.450425	0.019118	1.979543
88.407701	1000.981848	0.455430	0.019040	1.987827
89.466521	1011.974883	0.460435	0.018839	1.996223
90.376465	1023.029431	0.465439	0.018665	2.004590
90.991028	1034.078780	0.470444	0.018547	2.012844
92.057259	1045.075802	0.475449	0.018344	2.021138
92.834859	1056.148774	0.480454	0.018196	2.029382
93.341574	1067.201481	0.485458	0.018098	2.037510
93.901536	1078.226871	0.490463	0.017990	2.045599
94.718570	1089.228746	0.495468	0.017834	2.053703
95.478269	1100.268663	0.500472	0.017689	2.061787
95.846422	1111.348677	0.505477	0.017617	2.069772
96.525646	1122.329528	0.510482	0.017487	2.077732
97.236274	1133.360560	0.515487	0.017351	2.085705
98.052227	1144.383694	0.520491	0.017195	2.093666
98.613891	1155.453726	0.525496	0.017087	2.101569
99.297322	1166.447626	0.530501	0.016956	2.109418
100.082272	1177.457075	0.535506	0.016806	2.117272
100.701402	1188.533294	0.540510	0.016687	2.125104
101.278677	1199.558556	0.545515	0.016576	2.132862
101.801990	1210.573678	0.550520	0.016475	2.140572
102.564514	1221.590026	0.555524	0.016329	2.148311
103.390806	1232.619261	0.560529	0.016171	2.156046
103.702182	1243.708903	0.565534	0.016110	2.163674
104.547339	1254.646334	0.570539	0.015949	2.171295
105.117219	1265.749854	0.575543	0.015839	2.178939
106.000040	1276.697457	0.580548	0.015671	2.186522
106.347370	1287.830737	0.585553	0.015603	2.194081
106.710012	1298.826251	0.590558	0.015532	2.201526
107.186890	1309.858864	0.595562	0.015440	2.208996
107.775016	1320.842603	0.600567	0.015327	2.216433
108.631070	1331.855744	0.605572	0.015163	2.223924
109.547574	1342.874178	0.610576	0.014989	2.231406
110.201393	1353.918485	0.615581	0.014863	2.238822
110.977023	1364.962292	0.620586	0.014715	2.246240
111.685638	1375.992303	0.625591	0.014579	2.253609
112.435041	1386.998238	0.630595	0.014436	2.260947
112.919044	1398.058575	0.635600	0.014342	2.268239
113.625960	1409.050605	0.640605	0.014207	2.275512
114.260420	1420.093757	0.645610	0.014085	2.282778
114.863882	1431.137838	0.650614	0.013969	2.290015
115.358888	1442.144373	0.655619	0.013874	2.297182
115.822381	1453.193675	0.660624	0.013784	2.304346
116.370724	1464.197646	0.665628	0.013678	2.311478
116.977930	1475.227498	0.670633	0.013562	2.318616
117.339078	1486.281851	0.675638	0.013491	2.325696
117.961306	1497.275846	0.680643	0.013372	2.332771
118.610495	1508.282367	0.685647	0.013247	2.339838
119.367829	1519.291835	0.690652	0.013102	2.346908
119.904231	1530.376442	0.695657	0.012999	2.353957
120.400965	1541.368736	0.700661	0.012903	2.360919
120.967778	1552.397724	0.705666	0.012794	2.367898
121.412176	1563.451969	0.710671	0.012708	2.374847
121.900674	1574.440577	0.715676	0.012613	2.381744
122.493765	1585.484331	0.720680	0.012499	2.388676
122.720612	1596.528270	0.725685	0.012454	2.395513
123.443059	1607.502101	0.730690	0.012316	2.402388
123.928053	1618.565394	0.735695	0.012222	2.409251
124.535856	1629.560871	0.740699	0.012105	2.416076
124.885712	1640.617820	0.745704	0.012037	2.422869
125.413868	1651.601672	0.750709	0.011935	2.429633
126.063836	1662.634398	0.755713	0.011810	2.436432
126.920451	1673.631231	0.760718	0.011647	2.443231
127.446156	1684.680159	0.765723	0.011545	2.449977
127.991419	1695.722390	0.770728	0.011440	2.456704
128.361347	1706.748162	0.775732	0.011368	2.463369
129.019900	1717.741318	0.780737	0.011242	2.470052
129.288067	1728.806605	0.785742	0.011189	2.476684
129.901202	1739.800867	0.790747	0.011071	2.483323
130.221073	1750.854610	0.795751	0.011008	2.489922
130.691654	1761.827653	0.800756	0.010917	2.496486
131.360015	1772.874633	0.805761	0.010789	2.503113
131.970270	1783.883896	0.810765	0.010672	2.509689
132.401986	1794.914619	0.815770	0.010588	2.516227
133.014682	1805.936067	0.820775	0.010471	2.522776
133.519042	1816.971121	0.825780	0.010373	2.529296
134.170806	1827.967213	0.830784	0.010248	2.535804
134.642333	1838.996519	0.835789	0.010157	2.542280
135.323362	1850.023197	0.840794	0.010026	2.548777
135.817600	1861.050031	0.845799	0.009931	2.555223
136.449259	1872.048313	0.850803	0.009810	2.561662
137.197854	1883.085460	0.855808	0.009667	2.568128
137.657744	1894.175814	0.860813	0.009578	2.574555
137.983367	1905.161266	0.865817	0.009514	2.580882
138.523952	1916.163553	0.870822	0.009410	2.587241
138.709359	1927.198112	0.875827	0.009372	2.593539
139.441839	1938.159062	0.880832	0.009232	2.599879
139.917382	1949.230119	0.885836	0.009140	2.606218
140.532925	1960.235979	0.890841	0.009022	2.612531
141.024229	1971.260394	0.895846	0.008927	2.618817
141.636121	1982.265617	0.900850	0.008809	2.625098
142.155790	1993.315469	0.905855	0.008709	2.631372
142.549978	2004.344507	0.910860	0.008632	2.637598
143.044818	2015.354296	0.915865	0.008537	2.643816
143.563927	2026.342985	0.920869	0.008437	2.650011
143.926548	2037.426779	0.925874	0.008366	2.656217
144.395316	2048.403449	0.930879	0.008275	2.662368
144.869359	2059.392552	0.935884	0.008183	2.668513
145.231638	2070.436833	0.940888	0.008113	2.674654
145.854520	2081.437441	0.945893	0.007993	2.680802
146.485074	2092.459980	0.950898	0.007872	2.686949
146.834923	2103.524233	0.955902	0.007804	2.693056
147.192052	2114.509158	0.960907	0.007734	2.699108
147.752815	2125.513463	0.965912	0.007626	2.705191
148.193808	2136.567255	0.970917	0.007541	2.711267
148.732114	2147.572445	0.975921	0.007437	2.717319
149.279954	2158.580777	0.980926	0.007331	2.723361
149.731568	2169.624266	0.985931	0.007244	2.729392
150.333000	2180.625890	0.990936	0.007128	2.735413
150.619648	2191.679242	0.995940	0.007072	2.741394
150.909324	2202.676215	1.000945	0.007015	2.747333
151.396480	2213.686871	1.005950	0.006920	2.753300
151.883967	2224.707273	1.010954	0.006826	2.759258
152.021325	2235.768361	1.015959	0.006798	2.765167
152.648679	2246.741794	1.020964	0.006677	2.771099
152.852718	2257.813433	1.025969	0.006636	2.776999
153.368129	2268.768503	1.030973	0.006537	2.782876
154.138517	2279.783338	1.035978	0.006390	2.788815
154.730092	2290.832638	1.040983	0.006276	2.794729
155.464797	2301.831174	1.045988	0.006135	2.800627
155.799837	2312.877996	1.050992	0.006070	2.806473
156.226775	2323.919705	1.055997	0.005987	2.812319
156.570993	2334.897463	1.061002	0.005920	2.818106
157.108778	2345.916135	1.066006	0.005816	2.823934
157.750098	2356.941163	1.071011	0.005693	2.829769
158.120725	2367.983813	1.076016	0.005621	2.835558
158.390299	2379.017374	1.081021	0.005567	2.841314
158.692290	2390.032167	1.086025	0.005508	2.847054
159.237934	2401.005821	1.091030	0.005403	2.852800
159.924460	2412.015868	1.096035	0.005271	2.858575
160.286543	2423.073573	1.101039	0.005201	2.864311
160.688121	2434.097819	1.106044	0.005122	2.870025
161.034787	2445.118648	1.111049	0.005055	2.875717
161.432598	2456.148455	1.116054	0.004977	2.881410
161.742421	2467.128825	1.121058	0.004916	2.887053
162.330002	2478.180406	1.126063	0.004803	2.892765
162.765296	2489.176825	1.131068	0.004719	2.898413
163.252392	2500.184280	1.136073	0.004625	2.904064
163.542113	2511.237673	1.141077	0.004568	2.909696
164.081612	2522.216025	1.146082	0.004464	2.915318
164.720878	2533.258960	1.151087	0.004341	2.920977
164.987460	2544.291662	1.156091	0.004288	2.926563
165.397550	2555.283313	1.161096	0.004209	2.932139
165.815471	2566.326439	1.166101	0.004128	2.937731
166.431156	2577.291515	1.171106	0.004009	2.943304
166.996434	2588.363588	1.176110	0.003901	2.948912
167.236898	2599.364580	1.181115	0.003853	2.954424
167.602239	2610.403850	1.186120	0.003781	2.959964
167.844334	2621.432274	1.191125	0.003733	2.965470
168.316124	2632.437154	1.196129	0.003642	2.970988
168.720969	2643.428267	1.201134	0.003563	2.976479
169.049367	2654.477190	1.206139	0.003499	2.981977
169.704132	2665.438148	1.211143	0.003373	2.987470
169.956495	2676.524277	1.216148	0.003323	2.992954
170.341286	2687.503177	1.221153	0.003248	2.998396
170.917029	2698.532395	1.226158	0.003138	3.003880
171.571824	2709.529217	1.231162	0.003012	3.009350
172.069891	2720.583008	1.236167	0.002916	3.014814
172.291692	2731.606243	1.241172	0.002871	3.020213
172.706268	2742.606401	1.246177	0.002791	3.025620
173.093375	2753.640729	1.251181	0.002716	3.031029
173.511366	2764.636265	1.256186	0.002634	3.036414
174.135355	2775.639281	1.261191	0.002515	3.041823
174.390047	2786.708851	1.266195	0.002464	3.047201
174.773259	2797.690466	1.271200	0.002389	3.052545
174.975616	2808.747008	1.276205	0.002349	3.057890
175.132674	2819.731158	1.281210	0.002317	3.063185
175.658426	2830.739474	1.286214	0.002215	3.068535
176.059014	2841.782603	1.291219	0.002137	3.073874
176.483350	2852.771561	1.296224	0.002055	3.079181
177.151761	2863.800559	1.301228	0.001927	3.084532
177.310277	2874.862134	1.306233	0.001894	3.089818
177.785789	2885.804146	1.311238	0.001802	3.095082
178.056828	2896.877241	1.316243	0.001749	3.100371
178.587559	2907.853777	1.321247	0.001646	3.105641
178.889792	2918.916396	1.326252	0.001587	3.110911
179.083484	2929.922847	1.331257	0.001548	3.116130
179.515433	2940.924793	1.336262	0.001464	3.121372
179.850818	2951.944244	1.341266	0.001399	3.126599
180.237833	2962.971959	1.346271	0.001323	3.131829
180.759737	2973.975517	1.351276	0.001223	3.137057
180.941680	2985.009709	1.356280	0.001186	3.142244
181.412715	2996.010253	1.361285	0.001095	3.147446
181.876198	3007.042436	1.366290	0.001005	3.152653
182.445764	3018.039450	1.371295	0.000895	3.157850
182.718395	3029.083593	1.376299	0.000841	3.163019
183.251039	3040.097005	1.381304	0.000739	3.168201
183.374222	3051.119102	1.386309	0.000713	3.173323
183.877000	3062.094305	1.391314	0.000616	3.178466
184.285886	3073.136168	1.396318	0.000536	3.183619
184.842074	3084.139888	1.401323	0.000429	3.188766
185.080030	3095.192103	1.406328	0.000382	3.193884
185.389362	3106.209583	1.411332	0.000321	3.198987
185.811744	3117.189670	1.416337	0.000239	3.204080
186.250436	3128.238879	1.421342	0.000154	3.209198
186.636212	3139.227222	1.426347	0.000079	3.214274
187.036048	3150.256638	1.431351	0.000001	3.219362
187.561210	3161.269034	1.436356	-0.000100	3.224450
188.050887	3172.280100	1.441361	-0.000195	3.229525
188.084907	3183.333268	1.446366	-0.000204	3.234552
188.638849	3194.310183	1.451370	-0.000310	3.239604
188.969016	3205.350656	1.456375	-0.000375	3.244647
189.439249	3216.351055	1.461380	-0.000466	3.249683
189.659377	3227.401480	1.466384	-0.000510	3.254701
189.806640	3238.400715	1.471389	-0.000540	3.259679
190.109620	3249.419421	1.476394	-0.000600	3.264678
190.456116	3260.436590	1.481399	-0.000668	3.269674
190.869039	3271.445669	1.486403	-0.000748	3.274667
191.318875	3282.466985	1.491408	-0.000835	3.279663
191.382072	3293.495974	1.496413	-0.000850	3.284605
191.764089	3304.521227	1.501417	-0.000924	3.289579
192.030574	3315.504750	1.506422	-0.000977	3.294512
192.505289	3326.508789	1.511427	-0.001069	3.299473
193.017404	3337.538188	1.516432	-0.001167	3.304442
193.602000	3348.557050	1.521436	-0.001280	3.309408
193.752031	3359.586167	1.526441	-0.001311	3.314316
194.173025	3370.595795	1.531446	-0.001393	3.319243
194.584019	3381.616554	1.536451	-0.001472	3.324166
195.458835	3392.596267	1.541455	-0.001639	3.329121
195.668206	3403.651822	1.546460	-0.001681	3.334019
196.343053	3414.652576	1.551465	-0.001811	3.338944
196.588235	3425.686374	1.556469	-0.001859	3.343822
196.931760	3436.705928	1.561474	-0.001927	3.348699
197.358169	3447.687856	1.566479	-0.002009	3.353563
197.861175	3458.720282	1.571484	-0.002106	3.358451
198.148374	3469.767052	1.576488	-0.002163	3.363312
198.511539	3480.777218	1.581493	-0.002234	3.368159
198.743226	3491.770937	1.586498	-0.002280	3.372975
198.961691	3502.813759	1.591503	-0.002324	3.377805
199.385080	3513.805824	1.596507	-0.002406	3.382630
199.895905	3524.813296	1.601512	-0.002505	3.387466
199.954467	3535.892046	1.606517	-0.002518	3.392271
200.296322	3546.840954	1.611521	-0.002585	3.397047
200.607525	3557.890846	1.616526	-0.002646	3.401856
200.771022	3568.903670	1.621531	-0.002680	3.406624
201.101571	3579.906598	1.626536	-0.002744	3.411402
201.611751	3590.907258	1.631540	-0.002843	3.416193
201.951561	3601.949382	1.636545	-0.002909	3.420975
202.434987	3612.955021	1.641550	-0.003003	3.425752
202.864572	3623.962965	1.646555	-0.003086	3.430516
203.410618	3634.988694	1.651559	-0.003191	3.435296
203.865127	3646.014668	1.656564	-0.003279	3.440057
204.169186	3657.034215	1.661569	-0.003339	3.444792
204.370192	3668.050724	1.666573	-0.003380	3.449506
204.720848	3679.052219	1.671578	-0.003448	3.454226
205.217485	3690.091386	1.676583	-0.003544	3.458971
205.762129	3701.063713	1.681588	-0.003649	3.463688
205.993444	3712.134762	1.686592	-0.003695	3.468403
206.234756	3723.102366	1.691597	-0.003743	3.473069
206.741286	3734.137891	1.696602	-0.003841	3.477788
207.061221	3745.136354	1.701606	-0.003904	3.482464
207.530873	3756.194184	1.706611	-0.003994	3.487175
207.895408	3767.164712	1.711616	-0.004066	3.491831
208.092787	3778.227911	1.716621	-0.004105	3.496501
208.301874	3789.235114	1.721625	-0.004147	3.501142
208.494796	3800.236175	1.726630	-0.004186	3.505773
208.793106	3811.245639	1.731635	-0.004245	3.510413
208.997057	3822.294146	1.736640	-0.004286	3.515052
209.199910	3833.287360	1.741644	-0.004327	3.519662
209.412772	3844.327693	1.746649	-0.004369	3.524286
209.943957	3855.311334	1.751654	-0.004472	3.528917
210.171160	3866.353989	1.756658	-0.004517	3.533532
210.522008	3877.343175	1.761663	-0.004586	3.538133
210.806571	3888.355883	1.766668	-0.004642	3.542730
211.258924	3899.375535	1.771673	-0.004729	3.547342
211.457492	3910.410470	1.776677	-0.004769	3.551926
211.874500	3921.409245	1.781682	-0.004850	3.556514
212.251486	3932.407633	1.786687	-0.004924	3.561091
212.922025	3943.434049	1.791692	-0.005052	3.565707
213.298668	3954.451094	1.796696	-0.005126	3.570280
213.682835	3965.482110	1.801701	-0.005201	3.574853
213.780158	3976.501005	1.806706	-0.005222	3.579384
214.105602	3987.515505	1.811710	-0.005285	3.583932
214.215681	3998.543176	1.816715	-0.005309	3.588457
214.425120	4009.545294	1.821720	-0.005351	3.592976
214.748659	4020.567707	1.826725	-0.005414	3.597510
215.053768	4031.564790	1.831729	-0.005474	3.602026
215.306176	4042.609188	1.836734	-0.005524	3.606550
215.652942	4053.586464	1.841739	-0.005592	3.611051
216.124024	4064.620062	1.846744	-0.005683	3.615582
216.411332	4075.628968	1.851748	-0.005740	3.620078
216.905655	4086.638502	1.856753	-0.005835	3.624591
217.385768	4097.693772	1.861758	-0.005928	3.629115
217.682102	4108.728461	1.866762	-0.005986	3.633606
218.118897	4119.749185	1.871767	-0.006071	3.638100
218.487403	4130.774081	1.876772	-0.006143	3.642583
218.718634	4141.783180	1.881777	-0.006189	3.647039
218.785584	4152.790239	1.886781	-0.006204	3.651472
219.140431	4163.802547	1.891786	-0.006274	3.655931
219.300755	4174.831536	1.896791	-0.006307	3.660372
219.634701	4185.853362	1.901795	-0.006372	3.664822
219.755631	4196.848020	1.906800	-0.006397	3.669234
220.069954	4207.878758	1.911805	-0.006459	3.673675
220.602375	4218.888656	1.916810	-0.006562	3.678125
220.992788	4229.897825	1.921814	-0.006638	3.682555
221.268081	4240.938935	1.926819	-0.006692	3.686979
221.593083	4251.906728	1.931824	-0.006756	3.691375
222.094654	4262.950334	1.936829	-0.006853	3.695813
222.548943	4273.931008	1.941833	-0.006941	3.700217
222.645034	4285.001885	1.946838	-0.006961	3.704613
223.023364	4295.981012	1.951843	-0.007035	3.708998
223.101232	4307.041262	1.956847	-0.007052	3.713378
223.382540	4318.013575	1.961852	-0.007108	3.717739
223.853153	4329.060832	1.966857	-0.007199	3.722144
224.325062	4340.031640	1.971862	-0.007290	3.726513
224.400258	4351.092169	1.976866	-0.007307	3.730873
224.765652	4362.070833	1.981871	-0.007378	3.735224
224.986580	4373.115830	1.986876	-0.007423	3.739582
225.463474	4384.083997	1.991881	-0.007515	3.743930
225.732916	4395.161045	1.996885	-0.007568	3.748295
