Wed Nov 23 17:12:02 2022

Number of Points = 2200
Depth (nm)	Load (µN)	Time (s)	Depth (V)	Load (V)
-0.434679	1.477248	0.000000	0.081272	0.802940
0.000000	6.951640	0.005005	0.081189	0.813297
0.766237	15.390487	0.010009	0.081043	0.829072
1.497428	25.683177	0.015014	0.080903	0.847783
2.313298	36.581818	0.020019	0.080748	0.867180
2.961660	47.762379	0.025024	0.080623	0.886521
3.600022	59.015144	0.030028	0.080501	0.905560
4.321607	70.224233	0.035033	0.080362	0.924185
4.737769	81.517337	0.040038	0.080282	0.942396
5.263465	92.705921	0.045043	0.080180	0.960162
5.790877	103.933500	0.050047	0.080078	0.977665
6.545201	115.037909	0.055052	0.079934	0.994802
7.674723	126.137371	0.060057	0.079719	1.011844
8.418113	137.371346	0.065061	0.079577	1.028591
9.081804	148.578735	0.070066	0.079450	1.044989
9.637923	159.762509	0.075071	0.079343	1.061045
10.393374	170.879413	0.080076	0.079198	1.076870
11.054154	182.027586	0.085080	0.079072	1.092460
11.762851	193.171987	0.090085	0.078936	1.107849
12.139489	204.372285	0.095090	0.078862	1.122939
12.678991	215.481572	0.100094	0.078758	1.137788
13.181263	226.591599	0.105099	0.078661	1.152429
13.909681	237.665791	0.110104	0.078522	1.166945
14.572376	248.800470	0.115109	0.078395	1.181329
16.019589	259.660814	0.120113	0.078121	1.195555
18.249447	270.720587	0.125118	0.077699	1.210210
18.907057	282.063916	0.130123	0.077573	1.224333
20.049178	293.111919	0.135128	0.077356	1.238154
21.456492	304.144329	0.140132	0.077089	1.251918
22.434550	315.345510	0.145137	0.076903	1.265545
23.252953	326.472436	0.150142	0.076747	1.278872
23.873895	337.608620	0.155146	0.076628	1.291989
24.654982	348.723190	0.160151	0.076478	1.305016
25.523949	359.751906	0.165156	0.076312	1.317853
26.180708	370.853999	0.170161	0.076186	1.330561
26.726102	381.970018	0.175165	0.076081	1.343119
27.203228	393.045530	0.180170	0.075989	1.355489
28.273761	404.028709	0.185175	0.075785	1.367881
29.364385	415.073568	0.190180	0.075578	1.380234
30.231995	426.204755	0.195184	0.075413	1.392483
31.171687	437.263683	0.200189	0.075233	1.404577
31.603342	448.439419	0.205194	0.075150	1.416496
32.367870	459.415851	0.210198	0.075004	1.428233
33.029266	470.549674	0.215203	0.074877	1.439998
33.620214	481.601607	0.220208	0.074763	1.451557
34.362083	492.647785	0.225213	0.074621	1.463075
35.405598	503.655361	0.230217	0.074423	1.474572
35.929327	514.798377	0.235222	0.074322	1.485928
36.867919	525.784467	0.240227	0.074143	1.497190
37.788363	536.850435	0.245232	0.073967	1.508440
38.503974	547.956727	0.250236	0.073830	1.519573
39.127637	559.020710	0.255241	0.073710	1.530552
39.894259	570.064090	0.260246	0.073564	1.541482
40.983262	581.057856	0.265250	0.073357	1.552398
41.464227	592.219105	0.270255	0.073264	1.563189
42.198032	603.229505	0.275260	0.073123	1.573849
42.754971	614.324336	0.280265	0.073016	1.584457
43.183405	625.379622	0.285269	0.072933	1.594914
43.842934	636.411505	0.290274	0.072807	1.605357
44.389929	647.476512	0.295279	0.072701	1.615727
45.139169	658.512970	0.300283	0.072558	1.626069
45.709558	669.561002	0.305288	0.072448	1.636299
46.216616	680.629680	0.310293	0.072350	1.646463
46.750179	691.668739	0.315298	0.072247	1.656546
47.440076	702.678482	0.320302	0.072115	1.666591
48.664787	713.650076	0.325307	0.071883	1.676710
49.807000	724.726919	0.330312	0.071666	1.686835
50.458035	735.832793	0.335317	0.071541	1.696772
51.180908	746.873290	0.340321	0.071402	1.706615
51.750985	757.940760	0.345326	0.071293	1.716379
52.334184	768.993526	0.350331	0.071180	1.726079
52.899639	780.018225	0.355335	0.071072	1.735694
53.390988	791.091719	0.360340	0.070977	1.745276
53.807202	802.148620	0.365345	0.070896	1.754768
54.416749	813.152695	0.370350	0.070779	1.764223
55.023406	824.179211	0.375354	0.070662	1.773644
55.980803	835.198075	0.380359	0.070480	1.783112
56.561121	846.267312	0.385364	0.070368	1.792461
57.265724	857.303228	0.390369	0.070233	1.801770
57.683333	868.386642	0.395373	0.070152	1.810987
58.365533	879.378055	0.400378	0.070021	1.820158
58.976853	890.417540	0.405383	0.069904	1.829301
59.737424	901.455886	0.410387	0.069758	1.838440
60.334412	912.501456	0.415392	0.069644	1.847493
60.896285	923.580141	0.420397	0.069536	1.856518
61.523746	934.543862	0.425402	0.069415	1.865427
62.338617	945.628693	0.430406	0.069259	1.874440
62.783607	956.647732	0.435411	0.069173	1.883256
63.644690	967.681644	0.440416	0.069009	1.892157
63.807173	978.795376	0.445421	0.068976	1.900888
64.496089	989.741056	0.450425	0.068844	1.909590
65.006618	1000.819641	0.455430	0.068745	1.918308
65.577080	1011.851454	0.460435	0.068635	1.926966
66.229231	1022.879112	0.465439	0.068510	1.935603
66.852492	1033.892768	0.470444	0.068391	1.944184
67.607776	1044.939295	0.475449	0.068246	1.952786
68.147921	1055.994382	0.480454	0.068142	1.961300
68.556782	1067.027940	0.485458	0.068063	1.969727
69.162463	1078.045987	0.490463	0.067946	1.978157
69.811181	1089.094333	0.495468	0.067822	1.986585
70.460713	1100.097618	0.500472	0.067697	1.994944
71.000439	1111.174470	0.505477	0.067593	2.003294
71.333785	1122.222324	0.510482	0.067528	2.011535
72.078782	1133.183420	0.515487	0.067385	2.019783
72.682798	1144.241695	0.520491	0.067269	2.028033
73.050238	1155.320742	0.525496	0.067198	2.036204
73.740349	1166.286020	0.530501	0.067065	2.044341
74.201734	1177.352157	0.535506	0.066976	2.052462
75.155228	1188.314749	0.540510	0.066794	2.060597
76.075157	1199.376983	0.545515	0.066619	2.068763
76.367475	1210.467879	0.550520	0.066562	2.076763
76.833389	1221.470524	0.555524	0.066471	2.084713
77.582982	1232.494986	0.560529	0.066328	2.092716
78.157294	1243.505220	0.565534	0.066218	2.100636
79.036873	1254.530618	0.570539	0.066050	2.108609
79.472099	1265.580988	0.575543	0.065965	2.116464
80.212252	1276.607898	0.580548	0.065824	2.124346
80.654975	1287.651006	0.585553	0.065738	2.132139
81.335119	1298.644270	0.590558	0.065608	2.139925
81.811443	1309.717084	0.595562	0.065515	2.147689
82.445655	1320.725726	0.600567	0.065394	2.155419
82.932639	1331.758896	0.605572	0.065300	2.163102
83.482395	1342.799952	0.610576	0.065194	2.170779
83.938090	1353.823433	0.615581	0.065105	2.178394
84.619922	1364.818348	0.620586	0.064975	2.186016
85.199496	1375.879801	0.625591	0.064863	2.193632
85.846306	1386.876860	0.630595	0.064739	2.201193
86.227039	1397.949146	0.635600	0.064665	2.208719
86.763701	1408.964577	0.640605	0.064562	2.216216
87.219071	1419.978397	0.645610	0.064473	2.223668
87.985799	1430.980890	0.650614	0.064327	2.231157
88.461474	1442.053523	0.655619	0.064235	2.238603
88.987874	1453.043856	0.660624	0.064133	2.245980
89.665190	1464.091807	0.665628	0.064004	2.253405
90.226291	1475.124864	0.670633	0.063896	2.260769
90.872165	1486.102869	0.675638	0.063772	2.268092
91.432114	1497.181956	0.680643	0.063664	2.275438
91.746389	1508.201989	0.685647	0.063602	2.282669
92.394198	1519.210430	0.690652	0.063478	2.289942
92.863053	1530.250091	0.695657	0.063387	2.297172
93.256023	1541.288722	0.700661	0.063311	2.304363
93.866403	1552.271480	0.705666	0.063193	2.311542
94.177722	1563.364594	0.710671	0.063132	2.318706
94.434053	1574.362054	0.715676	0.063081	2.325774
95.012497	1585.373542	0.720680	0.062970	2.332898
95.520774	1596.385735	0.725685	0.062872	2.339986
96.327383	1607.387256	0.730690	0.062718	2.347108
96.886707	1618.447721	0.735695	0.062610	2.354194
97.256511	1629.488514	0.740699	0.062538	2.361207
98.004072	1640.437113	0.745704	0.062395	2.368219
99.031009	1651.498147	0.750709	0.062200	2.375338
99.601469	1662.511636	0.755713	0.062090	2.382312
100.378878	1673.557178	0.760718	0.061941	2.389327
100.742197	1684.606625	0.765723	0.061870	2.396240
101.178540	1695.617862	0.770728	0.061786	2.403124
101.563509	1706.652116	0.775732	0.061711	2.409992
102.149075	1717.645020	0.780737	0.061598	2.416855
102.844423	1728.680721	0.785742	0.061465	2.423747
103.135498	1739.728286	0.790747	0.061408	2.430546
103.573373	1750.741561	0.795751	0.061323	2.437334
104.008331	1761.777888	0.800756	0.061239	2.444116
104.574626	1772.756750	0.805761	0.061130	2.450871
105.073770	1783.814137	0.810765	0.061033	2.457640
105.243778	1794.859526	0.815770	0.060999	2.464320
105.753226	1805.851521	0.820775	0.060900	2.471015
106.182928	1816.891520	0.825780	0.060817	2.477706
106.799711	1827.868986	0.830784	0.060698	2.484377
107.417591	1838.921947	0.835789	0.060580	2.491076
107.615513	1849.972551	0.840794	0.060540	2.497673
108.212637	1860.954667	0.845799	0.060425	2.504290
108.713941	1871.990451	0.850803	0.060328	2.510902
109.195578	1882.997420	0.855808	0.060235	2.517476
109.975522	1894.012317	0.860813	0.060086	2.524094
110.398505	1905.081528	0.865817	0.060004	2.530659
110.994442	1916.056356	0.870822	0.059889	2.537184
111.311557	1927.110617	0.875827	0.059827	2.543686
111.868060	1938.102184	0.880832	0.059720	2.550180
112.492611	1949.143154	0.885836	0.059600	2.556698
112.992510	1960.179936	0.890841	0.059504	2.563174
113.261183	1971.201547	0.895846	0.059450	2.569582
113.616808	1982.289840	0.900850	0.059381	2.576028
113.955905	1993.235006	0.905855	0.059315	2.582373
114.680152	2004.218728	0.910860	0.059176	2.588795
115.188368	2015.277212	0.915865	0.059078	2.595204
115.565547	2026.304060	0.920869	0.059004	2.601555
116.126551	2037.312570	0.925874	0.058896	2.607914
116.467530	2048.348987	0.930879	0.058830	2.614232
116.971062	2059.292231	0.935884	0.058733	2.620513
117.448202	2070.377512	0.940888	0.058640	2.626853
117.924382	2081.381684	0.945893	0.058548	2.633132
118.510998	2092.386940	0.950898	0.058435	2.639417
118.691946	2103.436307	0.955902	0.058399	2.645638
119.321789	2114.446476	0.960907	0.058278	2.651903
119.797144	2125.465488	0.965912	0.058186	2.658130
120.067584	2136.507672	0.970917	0.058132	2.664320
120.286039	2147.523155	0.975921	0.058089	2.670471
120.617042	2158.534197	0.980926	0.058024	2.676625
121.042752	2169.545469	0.985931	0.057941	2.682781
121.687721	2180.558965	0.990936	0.057817	2.688963
122.033328	2191.574749	0.995940	0.057750	2.695080
122.455164	2202.626625	1.000945	0.057668	2.701216
122.733060	2213.652653	1.005950	0.057613	2.707298
123.192828	2224.643474	1.010954	0.057524	2.713379
123.550642	2235.668811	1.015959	0.057454	2.719448
123.935816	2246.685309	1.020964	0.057379	2.725503
124.631085	2257.701619	1.025969	0.057246	2.731597
124.949241	2268.735766	1.030973	0.057184	2.737623
125.290033	2279.756255	1.035978	0.057117	2.743632
125.823581	2290.766823	1.040983	0.057014	2.749654
126.111911	2301.806018	1.045988	0.056957	2.755638
126.522010	2312.827270	1.050992	0.056878	2.761620
126.953510	2323.824771	1.055997	0.056794	2.767579
127.373301	2334.850191	1.061002	0.056712	2.773538
127.693164	2345.871329	1.066006	0.056650	2.779466
128.216547	2356.882116	1.071011	0.056549	2.785409
128.950388	2367.885461	1.076016	0.056408	2.791370
129.176191	2378.966233	1.081021	0.056363	2.797275
129.877349	2389.894620	1.086025	0.056229	2.803166
130.425913	2400.992213	1.091030	0.056123	2.809108
130.879922	2411.972972	1.096035	0.056035	2.814960
131.137251	2423.041903	1.101039	0.055984	2.820815
131.492454	2434.016057	1.106044	0.055915	2.826623
131.932896	2445.053684	1.111049	0.055830	2.832467
132.223784	2456.065228	1.116054	0.055772	2.838260
132.626247	2467.081244	1.121058	0.055694	2.844062
133.087644	2478.118230	1.126063	0.055605	2.849872
133.485598	2489.123216	1.131068	0.055527	2.855644
133.819160	2500.145496	1.136073	0.055462	2.861403
134.050059	2511.187002	1.141077	0.055416	2.867143
134.529283	2522.170049	1.146082	0.055323	2.872881
134.893507	2533.203186	1.151087	0.055252	2.878615
135.231491	2544.243106	1.156091	0.055186	2.884337
135.716151	2555.244363	1.161096	0.055092	2.890051
135.961037	2566.265914	1.166101	0.055044	2.895726
136.270356	2577.298773	1.171106	0.054983	2.901406
136.675052	2588.277114	1.176110	0.054904	2.907062
137.191668	2599.313686	1.181115	0.054805	2.912754
137.716577	2610.310176	1.186120	0.054703	2.918415
138.236339	2621.366002	1.191125	0.054603	2.924095
138.557994	2632.369103	1.196129	0.054540	2.929706
138.860086	2643.400891	1.201134	0.054481	2.935318
139.274187	2654.403825	1.206139	0.054400	2.940921
139.735881	2665.412472	1.211143	0.054311	2.946525
140.179089	2676.442634	1.216148	0.054225	2.952125
140.246867	2687.494906	1.221153	0.054210	2.957668
140.763807	2698.463322	1.226158	0.054110	2.963228
141.189900	2709.539424	1.231162	0.054027	2.968816
141.523358	2720.502418	1.236167	0.053962	2.974324
142.032968	2731.548424	1.241172	0.053864	2.979889
142.280988	2742.558807	1.246177	0.053814	2.985387
142.664416	2753.598660	1.251181	0.053740	2.990910
143.023784	2764.568604	1.256186	0.053669	2.996384
143.408866	2775.615242	1.261191	0.053594	3.001890
143.765363	2786.633462	1.266195	0.053525	3.007367
144.337000	2797.641645	1.271200	0.053415	3.012861
144.523133	2808.682849	1.276205	0.053377	3.018304
144.964052	2819.673901	1.281210	0.053292	3.023750
145.287492	2830.703322	1.286214	0.053228	3.029188
145.735166	2841.717530	1.291219	0.053142	3.034627
146.072500	2852.757520	1.296224	0.053076	3.040053
146.478568	2863.760359	1.301228	0.052997	3.045460
146.844636	2874.795188	1.306233	0.052925	3.050868
146.956255	2885.800349	1.311238	0.052902	3.056215
147.325240	2896.791908	1.316243	0.052830	3.061583
147.731094	2907.838765	1.321247	0.052751	3.066973
147.963786	2918.841740	1.326252	0.052704	3.072308
148.218527	2929.901051	1.331257	0.052654	3.077664
148.466627	2940.870600	1.336262	0.052604	3.082966
148.929547	2951.915989	1.341266	0.052515	3.088326
149.161560	2962.921066	1.346271	0.052469	3.093625
149.676577	2973.927939	1.351276	0.052369	3.098955
150.152963	2984.934332	1.356280	0.052277	3.104271
150.655863	2995.982444	1.361285	0.052180	3.109601
151.223478	3006.965135	1.366290	0.052071	3.114899
151.690495	3018.018642	1.371295	0.051980	3.120208
152.135641	3029.018105	1.376299	0.051894	3.125480
152.395219	3040.076213	1.381304	0.051843	3.130744
152.497906	3051.053849	1.386309	0.051821	3.135939
152.827415	3062.093693	1.391314	0.051756	3.141186
153.007192	3073.084846	1.396318	0.051720	3.146381
153.460934	3084.110906	1.401323	0.051632	3.151622
153.722259	3095.126377	1.406328	0.051580	3.156822
154.158871	3106.150882	1.411332	0.051495	3.162042
154.702568	3117.153964	1.416337	0.051391	3.167258
155.104614	3128.189809	1.421342	0.051313	3.172461
155.450339	3139.195609	1.426347	0.051245	3.177634
156.121668	3150.189658	1.431351	0.051116	3.182837
156.475683	3161.256756	1.436356	0.051047	3.188023
156.787360	3172.235945	1.441361	0.050986	3.193153
157.075358	3183.289996	1.446366	0.050929	3.198307
157.631428	3194.275282	1.451370	0.050822	3.203456
157.869765	3205.314398	1.456375	0.050775	3.208579
158.217566	3216.322613	1.461380	0.050707	3.213695
158.377705	3227.340719	1.466384	0.050674	3.218781
158.876272	3238.343551	1.471389	0.050578	3.223898
159.229139	3249.373897	1.476394	0.050509	3.229000
159.536049	3260.399172	1.481399	0.050448	3.234085
159.754070	3271.428169	1.486403	0.050405	3.239152
160.128055	3282.413132	1.491408	0.050332	3.244211
160.534679	3293.447368	1.496413	0.050253	3.249290
160.869072	3304.450719	1.501417	0.050187	3.254336
161.209347	3315.468421	1.506422	0.050121	3.259382
161.602917	3326.486129	1.511427	0.050044	3.264427
162.010118	3337.516673	1.516432	0.049965	3.269472
162.238311	3348.540054	1.521436	0.049919	3.274483
162.684689	3359.512366	1.526441	0.049833	3.279491
163.071608	3370.566123	1.531446	0.049758	3.284520
163.358317	3381.592295	1.536451	0.049701	3.289516
163.446987	3392.612903	1.541455	0.049682	3.294477
164.024585	3403.575878	1.546460	0.049571	3.299467
164.585472	3414.614539	1.551465	0.049463	3.304481
165.091768	3425.630201	1.556469	0.049365	3.309470
165.512430	3436.665013	1.561474	0.049283	3.314449
165.799085	3447.673694	1.566479	0.049227	3.319391
166.068819	3458.698972	1.571484	0.049173	3.324332
166.492571	3469.716822	1.576488	0.049091	3.329281
166.837583	3480.711182	1.581493	0.049024	3.334203
167.235518	3491.730385	1.586498	0.048946	3.339135
168.251218	3502.716183	1.591503	0.048753	3.344122
168.937354	3513.758958	1.596507	0.048622	3.349085
169.181559	3524.804253	1.601512	0.048573	3.353987
169.809186	3535.779589	1.606517	0.048452	3.358898
170.379383	3546.815532	1.611521	0.048343	3.363822
170.827432	3557.841464	1.616526	0.048256	3.368719
171.162961	3568.850738	1.621531	0.048190	3.373587
171.661728	3579.878112	1.626536	0.048094	3.378477
171.994967	3590.869157	1.631540	0.048029	3.383323
173.739269	3601.814165	1.636545	0.047699	3.388315
174.402920	3612.913986	1.641550	0.047571	3.393234
174.698020	3623.945809	1.646555	0.047513	3.398071
174.896887	3634.970269	1.651559	0.047473	3.402887
175.188337	3645.989680	1.656564	0.047416	3.407705
175.586634	3656.970597	1.661569	0.047338	3.412512
176.009278	3668.001014	1.666573	0.047256	3.417337
176.397054	3679.015947	1.671578	0.047181	3.422144
176.705287	3690.043565	1.676583	0.047120	3.426940
177.084184	3701.068711	1.681588	0.047046	3.431737
177.300958	3712.077773	1.686592	0.047003	3.436500
177.753655	3723.087675	1.691597	0.046915	3.441286
178.237791	3734.092237	1.696602	0.046822	3.446066
178.694011	3745.131945	1.701606	0.046734	3.450851
178.906066	3756.130921	1.706611	0.046691	3.455583
179.417841	3767.151450	1.711616	0.046592	3.460353
179.715567	3778.182406	1.716621	0.046534	3.465095
180.287032	3789.183242	1.721625	0.046424	3.469851
180.418709	3800.218233	1.726630	0.046396	3.474563
180.678609	3811.229325	1.731635	0.046345	3.479273
180.968073	3822.236407	1.736640	0.046288	3.483978
181.230678	3833.286668	1.741644	0.046236	3.488693
181.653294	3844.239532	1.746649	0.046154	3.493378
181.950491	3855.296603	1.751654	0.046095	3.498086
182.060867	3866.298688	1.756658	0.046072	3.502743
182.651985	3877.339505	1.761663	0.045958	3.507466
182.782244	3888.305881	1.766668	0.045931	3.512098
183.278073	3899.354147	1.771673	0.045835	3.516800
183.611160	3910.361643	1.776677	0.045770	3.521459
184.039055	3921.392449	1.781682	0.045687	3.526134
184.402777	3932.392359	1.786687	0.045616	3.530781
184.958500	3943.403411	1.791692	0.045509	3.535450
185.258560	3954.399546	1.796696	0.045450	3.540076
185.777868	3965.444432	1.801701	0.045350	3.544742
186.224850	3976.451973	1.806706	0.045263	3.549377
186.415064	3987.492835	1.811710	0.045225	3.553991
186.652344	3998.485851	1.816715	0.045177	3.558585
187.091606	4009.532034	1.821720	0.045092	3.563218
187.427157	4020.523758	1.826725	0.045027	3.567810
187.731117	4031.519606	1.831729	0.044967	3.572394
187.913483	4042.577756	1.836734	0.044930	3.576985
188.235916	4053.562607	1.841739	0.044867	3.581555
188.600979	4064.590479	1.846744	0.044795	3.586141
188.864843	4075.612197	1.851748	0.044743	3.590708
189.112445	4086.624443	1.856753	0.044694	3.595263
189.585722	4097.642091	1.861758	0.044603	3.599840
189.970698	4108.710035	1.866762	0.044528	3.604421
190.399275	4119.716680	1.871767	0.044444	3.608977
190.702680	4130.719155	1.876772	0.044385	3.613511
191.029988	4141.771395	1.881777	0.044321	3.618062
191.405571	4152.747647	1.886781	0.044247	3.622582
191.734516	4163.800968	1.891786	0.044183	3.627122
191.892544	4174.783459	1.896791	0.044151	3.631609
192.109604	4185.831604	1.901795	0.044107	3.636124
192.393408	4196.794387	1.906800	0.044051	3.640606
192.922861	4207.854433	1.911805	0.043949	3.645148
193.167840	4218.825206	1.916810	0.043900	3.649617
193.402219	4229.889684	1.921814	0.043854	3.654118
193.658475	4240.884130	1.926819	0.043803	3.658587
193.970830	4251.920781	1.931824	0.043742	3.663074
194.205411	4262.949915	1.936829	0.043695	3.667543
194.420244	4273.932728	1.941833	0.043652	3.671987
194.820687	4284.942312	1.946838	0.043574	3.676455
195.041256	4295.970963	1.951843	0.043530	3.680907
195.359465	4306.984384	1.956847	0.043467	3.685357
195.748462	4317.999835	1.961852	0.043392	3.689811
196.118573	4328.985481	1.966857	0.043319	3.694245
196.533924	4340.025963	1.971862	0.043239	3.698700
196.950253	4351.034470	1.976866	0.043158	3.703137
197.265281	4362.075194	1.981871	0.043096	3.707571
197.543200	4373.064566	1.986876	0.043041	3.711975
198.161580	4384.072692	1.991881	0.042922	3.716416
198.491920	4395.093296	1.996885	0.042858	3.720828
198.808101	4406.146705	2.001890	0.042796	3.725245
198.906129	4417.148035	2.006895	0.042775	3.729615
199.362203	4428.140398	2.011899	0.042686	3.734012
