Wed Nov 23 19:44:20 2022

Number of Points = 2200
Depth (nm)	Load (µN)	Time (s)	Depth (V)	Load (V)
-4.970173	1.225413	0.000000	-0.016160	1.101055
0.000000	7.254940	0.005005	-0.017094	1.111467
4.586560	16.686913	0.010009	-0.017957	1.126031
7.776327	27.752060	0.015014	-0.018558	1.141843
9.744754	39.104143	0.020019	-0.018931	1.157232
11.181493	50.381020	0.025024	-0.019203	1.172080
12.088628	61.638477	0.030028	-0.019376	1.186476
12.773225	72.817881	0.035033	-0.019507	1.200505
13.430787	83.941545	0.040038	-0.019633	1.214292
14.210519	95.024441	0.045043	-0.019782	1.227929
15.310355	105.984408	0.050047	-0.019991	1.241408
17.839776	116.874452	0.055052	-0.020469	1.255270
19.956496	127.971649	0.060057	-0.020869	1.269043
21.589593	139.203655	0.065061	-0.021178	1.282620
22.877805	150.346361	0.070066	-0.021422	1.295811
24.390192	161.478535	0.075071	-0.021709	1.308947
25.585286	172.552843	0.080076	-0.021936	1.321760
26.455585	183.735066	0.085080	-0.022102	1.334438
28.023343	194.628385	0.090085	-0.022399	1.346957
29.436395	205.754891	0.095090	-0.022667	1.359551
31.112162	216.803129	0.100094	-0.022984	1.372046
32.653488	227.898052	0.105099	-0.023276	1.384425
33.455927	239.085393	0.110104	-0.023429	1.396510
34.605704	250.133168	0.115109	-0.023648	1.408477
35.848878	261.160253	0.120113	-0.023884	1.420355
37.173894	272.254593	0.125118	-0.024135	1.432233
38.245596	283.316866	0.130123	-0.024339	1.443888
39.489303	294.383526	0.135128	-0.024575	1.455515
40.494754	305.482848	0.140132	-0.024766	1.466996
41.935702	316.461005	0.145137	-0.025040	1.478423
42.999316	327.584725	0.150142	-0.025242	1.489771
44.455535	338.603751	0.155146	-0.025518	1.501068
45.254399	349.762086	0.160151	-0.025670	1.512187
46.487515	360.747815	0.165156	-0.025905	1.523207
47.409665	371.860521	0.170161	-0.026080	1.534163
48.604259	382.901152	0.175165	-0.026307	1.545064
49.803928	393.917485	0.180170	-0.026535	1.555867
50.771212	405.028885	0.185175	-0.026719	1.566606
51.811010	416.085059	0.190180	-0.026917	1.577245
52.738743	427.114724	0.195184	-0.027094	1.587750
53.736721	438.183354	0.200189	-0.027284	1.598244
54.357083	449.305269	0.205194	-0.027403	1.608596
55.165396	460.316207	0.210198	-0.027558	1.618841
56.225380	471.333929	0.215203	-0.027759	1.629107
57.004256	482.419530	0.220208	-0.027908	1.639281
58.067573	493.413650	0.225213	-0.028110	1.649399
59.094227	504.452263	0.230217	-0.028306	1.659483
60.569514	515.462207	0.235222	-0.028585	1.669620
61.365333	526.593082	0.240227	-0.028737	1.679591
62.466929	537.608536	0.245232	-0.028947	1.689496
63.725716	548.604701	0.250236	-0.029186	1.699374
64.772349	559.702299	0.255241	-0.029385	1.709217
65.895028	570.727428	0.260246	-0.029598	1.718965
66.993797	581.776805	0.265250	-0.029807	1.728670
67.791210	592.862661	0.270255	-0.029959	1.738262
68.818606	603.880273	0.275260	-0.030155	1.747811
69.550053	614.963974	0.280265	-0.030295	1.757276
70.313971	626.008180	0.285269	-0.030441	1.766667
70.873500	637.070886	0.290274	-0.030549	1.775964
72.253104	647.963031	0.295279	-0.030810	1.785309
73.356673	659.087870	0.300283	-0.031020	1.794715
73.840208	670.212693	0.305288	-0.031114	1.803895
74.718162	681.149414	0.310293	-0.031281	1.812988
75.844350	692.214785	0.315298	-0.031495	1.822208
76.776349	703.242293	0.320302	-0.031673	1.831297
77.515624	714.333703	0.325307	-0.031814	1.840338
78.354558	725.328185	0.330312	-0.031974	1.849285
79.108978	736.417912	0.335317	-0.032119	1.858241
79.967580	747.381692	0.340321	-0.032283	1.867083
81.144786	758.438840	0.345326	-0.032506	1.876042
81.760897	769.491951	0.350331	-0.032624	1.884803
82.658384	780.540280	0.355335	-0.032796	1.893596
83.333641	791.572405	0.360340	-0.032925	1.902276
83.947754	802.642593	0.365345	-0.033043	1.910928
84.881590	813.607916	0.370350	-0.033221	1.919547
85.639904	824.692850	0.375354	-0.033366	1.928170
86.320929	835.737586	0.380359	-0.033497	1.936705
86.615705	846.797374	0.385364	-0.033555	1.945112
87.722856	857.730291	0.390369	-0.033765	1.953599
88.833507	868.729092	0.395373	-0.033976	1.962098
89.927386	879.810266	0.400378	-0.034184	1.970617
90.942356	890.866665	0.405383	-0.034377	1.979061
91.586010	901.910888	0.410387	-0.034501	1.987365
92.485113	912.926626	0.415392	-0.034672	1.995678
93.014245	924.013249	0.420397	-0.034774	2.003914
93.795210	935.013172	0.425402	-0.034924	2.012117
94.148486	946.098194	0.430406	-0.034993	2.020241
95.029616	957.051305	0.435411	-0.035161	2.028369
95.468264	968.148583	0.440416	-0.035246	2.036458
96.243429	979.140637	0.445421	-0.035394	2.044522
96.768938	990.195373	0.450425	-0.035495	2.052537
97.548695	1001.185397	0.455430	-0.035644	2.060537
98.354419	1012.207919	0.460435	-0.035798	2.068536
99.237800	1023.247277	0.465439	-0.035967	2.076533
99.896735	1034.325791	0.470444	-0.036093	2.084473
100.736162	1045.310979	0.475449	-0.036253	2.092361
101.311835	1056.383536	0.480454	-0.036364	2.100217
101.991697	1067.393396	0.485458	-0.036494	2.108024
102.695277	1078.416281	0.490463	-0.036629	2.115817
103.471511	1089.435807	0.495468	-0.036777	2.123596
104.016650	1100.508715	0.500472	-0.036882	2.131329
104.600870	1111.516837	0.505477	-0.036995	2.138998
105.440676	1122.530298	0.510482	-0.037155	2.146703
106.144110	1133.555565	0.515487	-0.037290	2.154356
106.866448	1144.597149	0.520491	-0.037428	2.161997
107.839625	1155.576934	0.525496	-0.037613	2.169627
108.709102	1166.652858	0.530501	-0.037779	2.177270
109.322940	1177.675581	0.535506	-0.037897	2.184793
110.023528	1188.700184	0.540510	-0.038031	2.192311
110.418835	1199.790584	0.545515	-0.038108	2.199778
110.920204	1210.767416	0.550520	-0.038205	2.207169
111.473850	1221.815924	0.555524	-0.038312	2.214593
112.424318	1232.766518	0.560529	-0.038493	2.222016
113.146809	1243.840025	0.565534	-0.038631	2.229443
113.663832	1254.883224	0.570539	-0.038731	2.236782
114.087448	1265.945500	0.575543	-0.038813	2.244087
114.744404	1276.927684	0.580548	-0.038939	2.251368
115.391113	1287.951656	0.585553	-0.039063	2.258650
116.211504	1298.970704	0.590558	-0.039220	2.265943
116.685862	1310.016643	0.595562	-0.039312	2.273155
117.297423	1321.011489	0.600567	-0.039429	2.280340
117.780069	1332.080873	0.605572	-0.039522	2.287523
118.418126	1343.091411	0.610576	-0.039645	2.294678
119.266637	1354.068791	0.615581	-0.039807	2.301835
119.775416	1365.143157	0.620586	-0.039905	2.308959
120.622549	1376.139629	0.625591	-0.040067	2.316083
121.164377	1387.190530	0.630595	-0.040171	2.323155
121.702112	1398.219323	0.635600	-0.040275	2.330190
122.414091	1409.221567	0.640605	-0.040411	2.337224
123.204581	1420.243624	0.645610	-0.040562	2.344265
123.800331	1431.271292	0.650614	-0.040677	2.351248
124.268433	1442.330284	0.655619	-0.040767	2.358203
124.653463	1453.366696	0.660624	-0.040842	2.365107
125.061262	1464.378257	0.665628	-0.040921	2.371980
125.660330	1475.373823	0.670633	-0.041037	2.378862
126.348296	1486.378999	0.675638	-0.041168	2.385747
127.164447	1497.419601	0.680643	-0.041324	2.392660
127.911679	1508.440921	0.685647	-0.041467	2.399527
128.418790	1519.479731	0.690652	-0.041565	2.406337
129.044573	1530.522211	0.695657	-0.041685	2.413154
129.402865	1541.529672	0.700661	-0.041755	2.419877
130.099058	1552.506315	0.705666	-0.041888	2.426629
130.840713	1563.576959	0.710671	-0.042030	2.433428
131.247623	1574.611306	0.715676	-0.042109	2.440120
131.923710	1585.605837	0.720680	-0.042239	2.446822
132.469417	1596.662044	0.725685	-0.042344	2.453518
133.076607	1607.639260	0.730690	-0.042461	2.460159
133.493997	1618.711298	0.735695	-0.042542	2.466803
133.827023	1629.745036	0.740699	-0.042607	2.473389
134.363559	1640.718322	0.745704	-0.042711	2.479962
135.004134	1651.751208	0.750709	-0.042833	2.486571
135.284802	1662.824968	0.755713	-0.042889	2.493118
136.080283	1673.768360	0.760718	-0.043041	2.499670
136.584071	1684.833268	0.765723	-0.043138	2.506220
137.089237	1695.858632	0.770728	-0.043236	2.512730
137.491054	1706.870821	0.775732	-0.043314	2.519195
138.192200	1717.867179	0.780737	-0.043448	2.525691
138.760885	1728.926182	0.785742	-0.043557	2.532182
139.640167	1739.900243	0.790747	-0.043725	2.538664
140.097643	1750.953408	0.795751	-0.043814	2.545097
140.493311	1762.016098	0.800756	-0.043891	2.551508
141.106677	1772.982365	0.805761	-0.044009	2.557888
141.660210	1784.038072	0.810765	-0.044115	2.564291
141.956597	1795.059165	0.815770	-0.044173	2.570612
142.829612	1806.093729	0.820775	-0.044340	2.577029
143.015794	1817.136520	0.825780	-0.044378	2.583311
143.684533	1828.084975	0.830784	-0.044506	2.589611
143.946223	1839.157806	0.835789	-0.044558	2.595892
144.796078	1850.111332	0.840794	-0.044720	2.602197
145.325597	1861.180225	0.845799	-0.044822	2.608493
145.669694	1872.217823	0.850803	-0.044889	2.614724
145.854372	1883.237804	0.855808	-0.044927	2.620902
146.621045	1894.203804	0.860813	-0.045073	2.627138
147.301175	1905.246435	0.865817	-0.045204	2.633386
148.004020	1916.255626	0.870822	-0.045338	2.639605
148.311224	1927.334075	0.875827	-0.045399	2.645777
148.471037	1938.363687	0.880832	-0.045431	2.651883
148.886510	1949.350566	0.885836	-0.045512	2.657995
149.418076	1960.346412	0.890841	-0.045614	2.664119
150.343161	1971.344087	0.895846	-0.045791	2.670297
150.969817	1982.405117	0.900850	-0.045911	2.676444
151.214854	1993.450147	0.905855	-0.045960	2.682502
151.696154	2004.455582	0.910860	-0.046053	2.688566
151.954885	2015.466268	0.915865	-0.046104	2.694580
152.814720	2026.460743	0.920869	-0.046268	2.700675
153.257930	2037.509415	0.925874	-0.046354	2.706714
153.788755	2048.515126	0.930879	-0.046456	2.712732
154.620743	2059.473314	0.935884	-0.046615	2.718761
155.105490	2070.546222	0.940888	-0.046709	2.724780
155.550246	2081.585522	0.945893	-0.046795	2.730760
156.137204	2092.567505	0.950898	-0.046908	2.736721
156.671318	2103.603065	0.955902	-0.047011	2.742688
157.160630	2114.624443	0.960907	-0.047105	2.748627
157.465877	2125.650080	0.965912	-0.047165	2.754525
157.915914	2136.666284	0.970917	-0.047253	2.760429
158.472108	2147.675262	0.975921	-0.047360	2.766333
159.008613	2158.711046	0.980926	-0.047463	2.772237
159.392567	2169.706241	0.985931	-0.047538	2.778081
159.940683	2180.748992	0.990936	-0.047643	2.783964
160.283893	2191.769117	0.995940	-0.047711	2.789790
160.971090	2202.776347	1.000945	-0.047842	2.795652
161.386994	2213.791693	1.005950	-0.047923	2.801463
162.132313	2224.804484	1.010954	-0.048066	2.807313
162.610482	2235.858380	1.015959	-0.048158	2.813129
162.852829	2246.873673	1.020964	-0.048206	2.818875
163.310716	2257.871026	1.025969	-0.048295	2.824634
163.968107	2268.887846	1.030973	-0.048421	2.830424
164.533623	2279.925452	1.035978	-0.048530	2.836197
164.921201	2290.952359	1.040983	-0.048605	2.841925
165.012142	2301.984976	1.045988	-0.048625	2.847597
165.553086	2312.966418	1.050992	-0.048729	2.853303
166.181471	2323.958265	1.055997	-0.048850	2.859016
166.896332	2335.002668	1.061002	-0.048987	2.864758
167.310025	2346.058172	1.066006	-0.049067	2.870447
167.844321	2357.034463	1.071011	-0.049170	2.876103
168.212348	2368.081510	1.076016	-0.049242	2.881758
168.861143	2379.072103	1.081021	-0.049366	2.887417
169.327741	2390.127784	1.086025	-0.049457	2.893069
169.648893	2401.137200	1.091030	-0.049520	2.898664
169.935421	2412.143415	1.096035	-0.049576	2.904242
170.552857	2423.177877	1.101039	-0.049695	2.909873
170.681024	2434.192057	1.106044	-0.049722	2.915409
171.144654	2445.211408	1.111049	-0.049811	2.920988
171.856145	2456.189462	1.116054	-0.049948	2.926572
172.496149	2467.241803	1.121058	-0.050070	2.932173
172.708413	2478.259831	1.126063	-0.050113	2.937681
173.045584	2489.285446	1.131068	-0.050179	2.943201
173.364284	2500.301146	1.136073	-0.050241	2.948702
173.967710	2511.314141	1.141077	-0.050357	2.954235
174.329138	2522.319082	1.146082	-0.050428	2.959718
175.022846	2533.356088	1.151087	-0.050561	2.965255
175.274148	2544.401259	1.156091	-0.050611	2.970720
175.653080	2555.380764	1.161096	-0.050685	2.976161
176.096039	2566.402338	1.166101	-0.050770	2.981623
176.832838	2577.390009	1.171106	-0.050911	2.987101
177.195946	2588.441951	1.176110	-0.050982	2.992546
177.584249	2599.470920	1.181115	-0.051058	2.997973
177.820566	2610.504883	1.186120	-0.051105	3.003370
178.242120	2621.513684	1.191125	-0.051187	3.008772
178.770088	2632.477936	1.196129	-0.051288	3.014159
179.349841	2643.541905	1.201134	-0.051400	3.019591
179.500916	2654.573390	1.206139	-0.051431	3.024936
180.036449	2665.556989	1.211143	-0.051534	3.030304
180.555050	2676.586512	1.216148	-0.051634	3.035681
181.231013	2687.596382	1.221153	-0.051764	3.041062
181.874027	2698.593278	1.226158	-0.051887	3.046423
182.346658	2709.647925	1.231162	-0.051979	3.051777
182.448824	2720.685455	1.236167	-0.052001	3.057061
182.764793	2731.681931	1.241172	-0.052063	3.062346
183.009162	2742.701279	1.246177	-0.052111	3.067624
183.518683	2753.696742	1.251181	-0.052210	3.072918
183.823815	2764.749889	1.256186	-0.052270	3.078201
184.233896	2775.745734	1.261191	-0.052349	3.083463
184.570368	2786.788533	1.266195	-0.052415	3.088727
185.168987	2797.759823	1.271200	-0.052530	3.093986
185.720509	2808.782911	1.276205	-0.052636	3.099253
186.307347	2819.816927	1.281210	-0.052749	3.104521
186.684390	2830.848238	1.286214	-0.052823	3.109750
187.128511	2841.856767	1.291219	-0.052909	3.114968
187.308409	2852.893789	1.296224	-0.052945	3.120155
187.916148	2863.869179	1.301228	-0.053062	3.125363
188.317266	2874.938920	1.306233	-0.053140	3.130577
188.738958	2885.902665	1.311238	-0.053222	3.135737
189.232202	2896.939284	1.316243	-0.053317	3.140931
189.530367	2907.972293	1.321247	-0.053376	3.146089
189.775629	2918.985209	1.326252	-0.053424	3.151221
190.034601	2929.990707	1.331257	-0.053476	3.156344
190.548466	2941.003617	1.336262	-0.053575	3.161496
191.190957	2952.023307	1.341266	-0.053698	3.166659
191.387860	2963.058302	1.346271	-0.053738	3.171762
191.850494	2974.063896	1.351276	-0.053827	3.176878
192.100161	2985.087610	1.356280	-0.053877	3.181966
192.778155	2996.074469	1.361285	-0.054007	3.187086
193.295697	3007.118731	1.366290	-0.054107	3.192202
193.667826	3018.130955	1.371295	-0.054179	3.197277
193.877783	3029.163437	1.376299	-0.054221	3.202331
194.435450	3040.159703	1.381304	-0.054329	3.207406
194.799757	3051.189245	1.386309	-0.054400	3.212462
195.295836	3062.185411	1.391314	-0.054496	3.217513
195.533820	3073.236530	1.396318	-0.054543	3.222547
195.926139	3084.236517	1.401323	-0.054619	3.227570
196.423892	3095.244468	1.406328	-0.054716	3.232602
196.563993	3106.277921	1.411332	-0.054745	3.237592
196.978801	3117.277411	1.416337	-0.054825	3.242594
197.631935	3128.289216	1.421342	-0.054950	3.247625
197.914831	3139.328763	1.426347	-0.055006	3.252612
198.222910	3150.335770	1.431351	-0.055067	3.257580
198.460467	3161.375181	1.436356	-0.055114	3.262546
198.849990	3172.366522	1.441361	-0.055190	3.267503
199.284383	3183.378255	1.446366	-0.055274	3.272467
199.587905	3194.410082	1.451370	-0.055334	3.277415
200.200353	3205.402491	1.456375	-0.055451	3.282377
200.571865	3216.468775	1.461380	-0.055524	3.287335
200.855941	3227.461350	1.466384	-0.055580	3.292240
201.342200	3238.452007	1.471389	-0.055674	3.297164
201.512279	3249.503346	1.476394	-0.055709	3.302066
202.000808	3260.488068	1.481399	-0.055803	3.306972
202.397576	3271.524805	1.486403	-0.055880	3.311882
202.689850	3282.550337	1.491408	-0.055938	3.316767
202.930702	3293.555721	1.496413	-0.055986	3.321629
203.456354	3304.561171	1.501417	-0.056087	3.326519
204.014513	3315.577735	1.506422	-0.056194	3.331411
204.315068	3326.612895	1.511427	-0.056254	3.336272
204.675472	3337.605366	1.516432	-0.056324	3.341115
205.122506	3348.652135	1.521436	-0.056411	3.345985
205.507208	3359.651837	1.526441	-0.056485	3.350819
205.951256	3370.675587	1.531446	-0.056571	3.355664
206.070383	3381.704592	1.536451	-0.056597	3.360465
206.504820	3392.722436	1.541455	-0.056681	3.365292
206.852547	3403.728087	1.546460	-0.056749	3.370096
207.025080	3414.731520	1.551465	-0.056784	3.374872
207.575847	3425.735578	1.556469	-0.056890	3.379686
208.140481	3436.771574	1.561474	-0.056999	3.384509
208.275982	3447.804050	1.566479	-0.057027	3.389272
208.667075	3458.807190	1.571484	-0.057103	3.394046
208.817997	3469.836207	1.576488	-0.057134	3.398796
209.591722	3480.777018	1.581493	-0.057282	3.403575
209.978461	3491.888113	1.586498	-0.057357	3.408375
210.172743	3502.860195	1.591503	-0.057396	3.413085
210.417420	3513.902498	1.596507	-0.057445	3.417825
210.798769	3524.882212	1.601512	-0.057519	3.422548
211.224952	3535.929686	1.606517	-0.057602	3.427298
211.656453	3546.926715	1.611521	-0.057686	3.432021
212.154991	3557.951002	1.616526	-0.057782	3.436756
212.590184	3568.947224	1.621531	-0.057866	3.441466
212.941515	3579.998997	1.626536	-0.057935	3.446182
213.375573	3590.988776	1.631540	-0.058019	3.450876
213.794800	3602.008371	1.636545	-0.058101	3.455574
214.097692	3613.024870	1.641550	-0.058160	3.460251
214.512620	3624.051088	1.646555	-0.058241	3.464938
214.817358	3635.067792	1.651559	-0.058301	3.469602
215.092059	3646.072837	1.656564	-0.058355	3.474252
215.618281	3657.099434	1.661569	-0.058456	3.478933
216.015741	3668.124281	1.666573	-0.058534	3.483592
216.563225	3679.113626	1.671578	-0.058639	3.488248
216.611787	3690.169522	1.676583	-0.058651	3.492868
217.100377	3701.147319	1.681588	-0.058745	3.497499
217.607918	3712.165743	1.686592	-0.058843	3.502143
217.997352	3723.184752	1.691597	-0.058919	3.506767
218.304181	3734.212490	1.696602	-0.058979	3.511380
218.666892	3745.230073	1.701606	-0.059050	3.515989
218.961656	3756.240105	1.706611	-0.059108	3.520581
219.412699	3767.262558	1.711616	-0.059196	3.525189
219.643776	3778.287420	1.716621	-0.059242	3.529768
220.005987	3789.289905	1.721625	-0.059312	3.534346
220.281128	3800.316056	1.726630	-0.059367	3.538918
220.607087	3811.308100	1.731635	-0.059431	3.543476
220.893845	3822.356322	1.736640	-0.059487	3.548046
221.088609	3833.337947	1.741644	-0.059526	3.552574
221.658677	3844.353452	1.746649	-0.059636	3.557150
222.031824	3855.382283	1.751654	-0.059709	3.561705
222.574280	3866.400088	1.756658	-0.059813	3.566267
223.154628	3877.387155	1.761663	-0.059925	3.570815
223.569982	3888.445133	1.766668	-0.060006	3.575368
223.939009	3899.444021	1.771673	-0.060078	3.579887
224.303693	3910.463679	1.776677	-0.060149	3.584407
224.702404	3921.466204	1.781682	-0.060226	3.588918
225.158529	3932.499233	1.786687	-0.060315	3.593442
225.362236	3943.539668	1.791692	-0.060356	3.597936
225.585044	3954.526473	1.796696	-0.060400	3.602405
226.107030	3965.552111	1.801701	-0.060501	3.606916
226.262880	3976.569861	1.806706	-0.060533	3.611379
226.627153	3987.546195	1.811710	-0.060604	3.615842
226.979087	3998.614183	1.816715	-0.060673	3.620335
227.362321	4009.583850	1.821720	-0.060747	3.624786
227.749668	4020.628497	1.826725	-0.060823	3.629262
228.134260	4031.632551	1.831729	-0.060898	3.633716
228.689208	4042.660180	1.836734	-0.061004	3.638191
229.031803	4053.672638	1.841739	-0.061071	3.642633
229.561497	4064.688770	1.846744	-0.061174	3.647090
229.835961	4075.676261	1.851748	-0.061228	3.651504
230.040228	4086.725480	1.856753	-0.061269	3.655929
230.600905	4097.745921	1.861758	-0.061377	3.660375
230.907621	4108.819998	1.866762	-0.061437	3.664810
231.323624	4119.760421	1.871767	-0.061518	3.669198
231.471276	4130.863916	1.876772	-0.061548	3.673618
231.722257	4141.837267	1.881777	-0.061598	3.677991
232.106034	4152.868251	1.886781	-0.061673	3.682396
232.696192	4163.868562	1.891786	-0.061786	3.686804
233.093528	4174.869377	1.896791	-0.061864	3.691187
233.689251	4185.887568	1.901795	-0.061978	3.695592
233.935527	4196.919639	1.906800	-0.062027	3.699962
234.452615	4207.913866	1.911805	-0.062127	3.704339
234.903648	4218.944214	1.916810	-0.062214	3.708718
235.243086	4229.965895	1.921814	-0.062281	3.713077
235.633122	4241.001312	1.926819	-0.062356	3.717442
236.021603	4251.993785	1.931824	-0.062432	3.721784
236.310114	4263.014810	1.936829	-0.062489	3.726123
236.795813	4273.996580	1.941833	-0.062583	3.730460
236.953566	4285.069464	1.946838	-0.062615	3.734796
237.603901	4296.016024	1.951843	-0.062740	3.739126
237.918212	4307.086923	1.956847	-0.062802	3.743466
238.298485	4318.074485	1.961852	-0.062876	3.747775
238.564192	4329.157447	1.966857	-0.062928	3.752104
