Wed Nov 23 17:50:12 2022

Number of Points = 2200
Depth (nm)	Load (µN)	Time (s)	Depth (V)	Load (V)
-26.861898	-0.309939	0.000000	0.072576	0.831112
-7.623759	1.545213	0.005005	0.068966	0.847070
0.000000	12.497794	0.010009	0.067533	0.870873
2.529593	24.632178	0.015014	0.067055	0.892849
4.458008	36.325822	0.020019	0.066690	0.913217
6.588854	47.632697	0.025024	0.066288	0.932643
8.894799	58.894306	0.030028	0.065852	0.951702
11.580363	70.033021	0.035033	0.065345	0.970412
13.945770	81.290452	0.040038	0.064899	0.988765
16.103720	92.546987	0.045043	0.064491	1.006667
17.972968	103.844410	0.050047	0.064138	1.024159
19.550730	115.106080	0.055052	0.063839	1.041152
20.968515	126.320218	0.060057	0.063570	1.057721
22.741168	137.431737	0.065061	0.063234	1.074072
24.087552	148.655646	0.070066	0.062979	1.090116
25.575671	159.782651	0.075071	0.062697	1.105866
27.288564	170.868539	0.080076	0.062373	1.121449
29.008725	182.022901	0.085080	0.062047	1.136909
30.298799	193.206966	0.090085	0.061803	1.151996
31.477854	204.379261	0.095090	0.061579	1.166820
32.935972	215.467057	0.100094	0.061302	1.181479
34.393037	226.564179	0.105099	0.061026	1.195969
35.870282	237.657354	0.110104	0.060746	1.210289
37.189368	248.842272	0.115109	0.060496	1.224481
38.686698	259.864730	0.120113	0.060212	1.238393
39.928927	271.056416	0.125118	0.059976	1.252240
41.053058	282.163745	0.130123	0.059763	1.265785
42.363838	293.240120	0.135128	0.059514	1.279228
43.455860	304.329290	0.140132	0.059306	1.292455
44.841004	315.475465	0.145137	0.059044	1.305732
45.716523	326.602202	0.150142	0.058877	1.318645
46.981082	337.578446	0.155146	0.058637	1.331422
48.256064	348.674543	0.160151	0.058395	1.344213
49.308109	359.817523	0.165156	0.058194	1.356845
50.286522	370.868355	0.170161	0.058008	1.369231
51.375310	381.965751	0.175165	0.057801	1.381599
52.464106	393.017182	0.180170	0.057594	1.393808
53.413728	404.116108	0.185175	0.057413	1.405906
54.254531	415.230788	0.190180	0.057253	1.417876
55.175525	426.274744	0.195184	0.057077	1.429703
56.539650	437.253656	0.200189	0.056818	1.441529
57.212153	448.442174	0.205194	0.056689	1.453218
58.517792	459.415006	0.210198	0.056442	1.464825
59.354278	470.550305	0.215203	0.056282	1.476334
60.689908	481.511426	0.220208	0.056029	1.487759
61.877038	492.632212	0.225213	0.055803	1.499201
62.711425	503.723274	0.230217	0.055644	1.510402
63.509335	514.815609	0.235222	0.055491	1.521509
64.470602	525.837432	0.240227	0.055308	1.532524
65.324482	536.911931	0.245232	0.055145	1.543472
66.331714	547.932310	0.250236	0.054954	1.554344
67.233277	559.004622	0.255241	0.054782	1.565154
68.315776	570.040817	0.260246	0.054576	1.575915
68.927656	581.187738	0.265250	0.054458	1.586550
69.538801	592.221974	0.270255	0.054341	1.597008
70.711194	603.182755	0.275260	0.054118	1.607515
71.478741	614.313205	0.280265	0.053971	1.617976
72.323579	625.345348	0.285269	0.053810	1.628306
73.031118	636.421359	0.290274	0.053675	1.638565
73.496105	647.496209	0.295279	0.053585	1.648681
74.510430	658.460458	0.300283	0.053392	1.658812
75.219861	669.560880	0.305288	0.053256	1.668904
76.122682	680.566621	0.310293	0.053084	1.678913
77.122009	691.607279	0.315298	0.052893	1.688923
78.020201	702.672490	0.320302	0.052722	1.698863
78.919000	713.711401	0.325307	0.052551	1.708723
79.540485	724.809830	0.330312	0.052431	1.718492
80.569315	735.755470	0.335317	0.052236	1.728198
81.536995	746.842951	0.340321	0.052051	1.737952
82.385672	757.900269	0.345326	0.051889	1.747589
83.226886	768.939874	0.350331	0.051729	1.757157
83.916788	780.005295	0.355335	0.051596	1.766649
84.746263	791.015978	0.360340	0.051438	1.776085
86.012331	802.010681	0.365345	0.051198	1.785585
86.793815	813.120373	0.370350	0.051048	1.794989
87.848192	824.112012	0.375354	0.050848	1.804325
88.762856	835.165137	0.380359	0.050673	1.813623
89.564627	846.208691	0.385364	0.050520	1.822833
90.873459	857.204393	0.390369	0.050272	1.832101
91.859814	868.285327	0.395373	0.050084	1.841299
92.781184	879.319416	0.400378	0.049909	1.850396
93.698904	890.401668	0.405383	0.049734	1.859485
94.519740	901.398781	0.410387	0.049577	1.868435
95.481548	912.463417	0.415392	0.049394	1.877434
96.313738	923.485171	0.420397	0.049235	1.886321
97.158991	934.536870	0.425402	0.049073	1.895193
97.990335	945.569739	0.430406	0.048915	1.904004
98.649827	956.610344	0.435411	0.048788	1.912735
99.616717	967.625915	0.440416	0.048604	1.921488
100.371066	978.690825	0.445421	0.048460	1.930183
101.265108	989.710130	0.450425	0.048289	1.938840
102.010622	1000.751930	0.455430	0.048147	1.947436
103.038604	1011.730023	0.460435	0.047951	1.956020
103.838600	1022.837866	0.465439	0.047798	1.964605
104.800101	1033.839967	0.470444	0.047615	1.973114
105.501557	1044.895850	0.475449	0.047481	1.981560
106.536897	1055.893148	0.480454	0.047284	1.990011
107.398601	1066.949023	0.485458	0.047119	1.998425
108.302330	1077.994737	0.490463	0.046947	2.006807
109.293059	1089.011312	0.495468	0.046758	2.015154
110.109282	1100.056131	0.500472	0.046602	2.023443
110.698967	1111.119340	0.505477	0.046489	2.031655
111.630803	1122.102833	0.510482	0.046311	2.039861
112.337195	1133.162411	0.515487	0.046176	2.048032
113.255353	1144.168485	0.520491	0.046001	2.056185
114.031623	1155.229643	0.525496	0.045853	2.064309
114.682272	1166.272742	0.530501	0.045728	2.072358
115.439515	1177.292622	0.535506	0.045583	2.080385
116.249743	1188.270489	0.540510	0.045428	2.088364
117.056955	1199.367132	0.545515	0.045274	2.096395
117.812104	1210.358031	0.550520	0.045130	2.104308
118.772158	1221.373459	0.555524	0.044947	2.112257
119.220840	1232.491008	0.560529	0.044860	2.120126
120.346925	1243.397974	0.565534	0.044646	2.127980
121.060392	1254.513574	0.570539	0.044509	2.135852
121.886297	1265.490870	0.575543	0.044352	2.143625
122.686989	1276.544472	0.580548	0.044199	2.151416
123.362084	1287.600779	0.585553	0.044069	2.159152
123.850728	1298.635923	0.590558	0.043975	2.166802
124.507370	1309.668798	0.595562	0.043849	2.174463
125.149686	1320.644019	0.600567	0.043726	2.182053
126.038475	1331.703036	0.605572	0.043556	2.189730
126.539349	1342.749566	0.610576	0.043459	2.197284
127.056997	1353.772271	0.615581	0.043360	2.204799
127.538233	1364.806743	0.620586	0.043267	2.212288
128.287507	1375.797623	0.625591	0.043123	2.219783
129.055954	1386.818159	0.630595	0.042976	2.227276
129.608032	1397.892286	0.635600	0.042870	2.234731
130.321084	1408.889381	0.640605	0.042733	2.242146
130.993570	1419.932739	0.645610	0.042605	2.249557
131.666967	1430.936331	0.650614	0.042475	2.256919
132.592318	1441.948802	0.655619	0.042299	2.264317
133.191309	1452.993141	0.660624	0.042184	2.271640
134.027850	1464.007914	0.665628	0.042024	2.278971
134.604084	1475.059108	0.670633	0.041913	2.286247
135.355756	1486.084004	0.675638	0.041770	2.293519
135.978535	1497.088944	0.680643	0.041650	2.300728
136.589572	1508.125789	0.685647	0.041533	2.307932
137.218052	1519.164181	0.690652	0.041412	2.315119
137.791742	1530.193059	0.695657	0.041302	2.322265
138.317375	1541.232698	0.700661	0.041200	2.329385
138.995814	1552.216936	0.705666	0.041070	2.336481
139.779075	1563.240996	0.710671	0.040921	2.343602
140.591040	1574.262253	0.715676	0.040765	2.350706
141.225026	1585.304360	0.720680	0.040644	2.357764
141.698941	1596.350579	0.725685	0.040552	2.364770
142.269785	1607.369665	0.730690	0.040442	2.371758
142.866965	1618.387298	0.735695	0.040327	2.378730
143.597277	1629.365981	0.740699	0.040188	2.385685
144.426066	1640.423763	0.745704	0.040029	2.392688
144.858539	1651.491410	0.750709	0.039946	2.399596
145.215039	1662.507513	0.755713	0.039876	2.406437
145.717184	1673.526462	0.760718	0.039779	2.413289
146.446676	1684.486623	0.765723	0.039639	2.420132
147.005742	1695.554674	0.770728	0.039532	2.426986
147.642413	1706.581538	0.775732	0.039410	2.433812
148.368094	1717.583007	0.780737	0.039271	2.440621
149.006634	1728.601898	0.785742	0.039148	2.447403
149.844345	1739.636412	0.790747	0.038988	2.454216
150.505852	1750.647038	0.795751	0.038861	2.460960
151.128832	1761.685797	0.800756	0.038742	2.467695
151.972451	1772.685946	0.805761	0.038581	2.474431
152.646755	1783.740824	0.810765	0.038451	2.481149
153.224704	1794.763105	0.815770	0.038340	2.487810
154.018261	1805.766392	0.820775	0.038189	2.494483
154.634980	1816.812101	0.825780	0.038070	2.501130
155.351810	1827.802507	0.830784	0.037933	2.507745
156.085859	1838.845036	0.835789	0.037793	2.514376
156.604965	1849.885973	0.840794	0.037692	2.520948
157.232957	1860.880268	0.845799	0.037572	2.527497
157.975946	1871.934521	0.850803	0.037430	2.534084
158.547774	1882.917099	0.855808	0.037320	2.540581
159.272017	1893.973322	0.860813	0.037181	2.547131
159.810232	1904.993299	0.865817	0.037077	2.553610
160.494713	1915.980179	0.870822	0.036946	2.560079
161.213269	1927.031788	0.875827	0.036809	2.566576
161.857522	1938.055805	0.880832	0.036685	2.573027
162.484668	1949.119084	0.885836	0.036565	2.579480
163.012191	1960.086276	0.890841	0.036463	2.585844
163.987972	1971.101922	0.895846	0.036277	2.592302
164.612312	1982.134738	0.900850	0.036157	2.598689
165.351874	1993.127178	0.905855	0.036016	2.605058
165.902929	2004.208246	0.910860	0.035909	2.611428
166.582566	2015.192041	0.915865	0.035779	2.617750
167.246747	2026.195217	0.920869	0.035652	2.624065
167.853831	2037.243502	0.925874	0.035535	2.630380
168.517372	2048.249248	0.930879	0.035408	2.636665
169.198694	2059.275641	0.935884	0.035277	2.642950
169.772730	2070.288300	0.940888	0.035167	2.649193
170.431493	2081.289762	0.945893	0.035041	2.655431
171.056804	2092.326367	0.950898	0.034921	2.661666
171.641364	2103.352409	0.955902	0.034808	2.667875
172.481704	2114.335528	0.960907	0.034648	2.674089
173.327456	2125.363446	0.965912	0.034486	2.680315
173.863235	2136.417518	0.970917	0.034383	2.686486
174.555591	2147.445254	0.975921	0.034250	2.692656
175.156369	2158.425959	0.980926	0.034135	2.698770
175.819685	2169.464084	0.985931	0.034008	2.704912
176.354715	2180.504451	0.990936	0.033905	2.711018
177.129717	2191.492345	0.995940	0.033757	2.717124
177.576693	2202.562750	1.000945	0.033670	2.723205
178.305754	2213.534346	1.005950	0.033530	2.729266
179.257286	2224.555002	1.010954	0.033349	2.735378
180.046425	2235.556889	1.015959	0.033198	2.741438
180.540191	2246.640915	1.020964	0.033103	2.747479
181.160234	2257.620573	1.025969	0.032984	2.753472
181.774696	2268.643043	1.030973	0.032866	2.759474
182.332012	2279.688887	1.035978	0.032759	2.765466
182.793882	2290.711853	1.040983	0.032669	2.771416
183.396153	2301.723394	1.045988	0.032553	2.777370
184.022275	2312.715932	1.050992	0.032433	2.783306
184.698339	2323.747233	1.055997	0.032304	2.789257
185.136739	2334.806099	1.061002	0.032219	2.795171
185.685530	2345.800568	1.066006	0.032113	2.801057
186.302588	2356.806493	1.071011	0.031994	2.806947
186.948349	2367.849997	1.076016	0.031871	2.812849
187.355533	2378.853833	1.081021	0.031791	2.818679
188.086732	2389.849673	1.086025	0.031651	2.824546
188.533303	2400.912059	1.091030	0.031565	2.830388
188.982299	2411.910042	1.096035	0.031478	2.836185
189.710762	2422.940173	1.101039	0.031339	2.842032
190.517584	2433.908769	1.106044	0.031184	2.847848
191.129296	2444.976190	1.111049	0.031067	2.853671
191.560119	2456.014477	1.116054	0.030983	2.859438
192.303287	2466.982214	1.121058	0.030841	2.865207
192.901598	2478.049219	1.126063	0.030726	2.870992
193.394478	2489.066378	1.131068	0.030631	2.876723
194.046569	2500.051610	1.136073	0.030506	2.882451
194.655610	2511.084327	1.141077	0.030389	2.888186
195.315512	2522.109369	1.146082	0.030262	2.893912
195.978566	2533.129671	1.151087	0.030135	2.899626
196.374121	2544.140094	1.156091	0.030058	2.905281
196.991829	2555.175269	1.161096	0.029940	2.910972
197.394137	2566.199880	1.166101	0.029861	2.916613
197.763584	2577.215518	1.171106	0.029789	2.922234
198.284668	2588.215158	1.176110	0.029689	2.927858
198.793103	2599.235451	1.181115	0.029591	2.933481
199.452374	2610.245804	1.186120	0.029464	2.939110
200.126737	2621.256605	1.191125	0.029335	2.944732
200.740345	2632.315215	1.196129	0.029217	2.950357
201.492453	2643.295947	1.201134	0.029073	2.955953
201.861664	2654.361985	1.206139	0.029001	2.961523
202.462556	2665.354471	1.211143	0.028886	2.967080
203.141075	2676.357943	1.216148	0.028756	2.972645
203.649287	2687.389618	1.221153	0.028658	2.978187
204.179527	2698.405429	1.226158	0.028555	2.983714
204.683621	2709.454608	1.231162	0.028458	2.989244
205.090754	2720.438680	1.236167	0.028379	2.994716
205.712576	2731.458578	1.241172	0.028260	3.000228
205.977676	2742.508962	1.246177	0.028207	3.005692
206.499028	2753.512138	1.251181	0.028107	3.011160
207.003180	2764.507857	1.256186	0.028009	3.016613
207.596148	2775.536379	1.261191	0.027895	3.022084
208.163296	2786.548423	1.266195	0.027786	3.027533
208.770108	2797.595381	1.271200	0.027669	3.032996
209.198810	2808.576034	1.276205	0.027586	3.038390
209.720451	2819.616536	1.281210	0.027486	3.043817
210.219334	2830.645381	1.286214	0.027389	3.049225
210.761631	2841.645152	1.291219	0.027285	3.054616
211.288655	2852.664979	1.296224	0.027183	3.060004
211.689912	2863.698185	1.301228	0.027105	3.065372
212.353815	2874.696300	1.306233	0.026978	3.070750
212.803908	2885.709681	1.311238	0.026891	3.076096
213.188586	2896.747164	1.316243	0.026816	3.081435
213.678253	2907.756659	1.321247	0.026721	3.086766
214.145771	2918.764787	1.326252	0.026631	3.092083
214.605958	2929.802424	1.331257	0.026542	3.097405
215.157459	2940.792389	1.336262	0.026436	3.102707
215.552151	2951.865299	1.341266	0.026359	3.108018
215.981851	2962.838399	1.346271	0.026275	3.113277
216.651167	2973.870695	1.351276	0.026147	3.118588
217.237442	2984.868288	1.356280	0.026034	3.123862
217.525458	2995.919375	1.361285	0.025978	3.129111
218.197052	3006.919462	1.366290	0.025849	3.134381
218.613470	3017.949381	1.371295	0.025768	3.139620
219.063410	3028.941672	1.376299	0.025681	3.144837
219.435241	3039.982320	1.381304	0.025608	3.150057
220.204338	3050.963174	1.386309	0.025461	3.155295
220.565215	3062.011154	1.391314	0.025391	3.160500
221.143433	3073.036191	1.396318	0.025280	3.165715
221.472148	3084.047568	1.401323	0.025215	3.170881
222.148382	3095.028798	1.406328	0.025086	3.176072
222.700171	3106.075843	1.411332	0.024979	3.181267
223.217976	3117.087983	1.416337	0.024879	3.186434
223.640168	3128.115983	1.421342	0.024797	3.191586
224.209222	3139.122181	1.426347	0.024688	3.196739
224.968659	3150.113729	1.431351	0.024543	3.201903
225.581326	3161.176674	1.436356	0.024425	3.207072
226.042806	3172.190383	1.441361	0.024336	3.212189
226.507723	3183.200003	1.446366	0.024246	3.217296
226.867668	3194.205448	1.451370	0.024175	3.222380
227.450273	3205.255819	1.456375	0.024063	3.227505
227.942766	3216.230548	1.461380	0.023968	3.232576
228.522776	3227.257417	1.466384	0.023857	3.237674
228.958818	3238.300534	1.471389	0.023772	3.242752
229.370486	3249.294797	1.476394	0.023692	3.247797
230.016525	3260.305224	1.481399	0.023568	3.252872
230.604302	3271.326804	1.486403	0.023455	3.257936
231.164530	3282.342248	1.491408	0.023347	3.262986
231.783504	3293.373691	1.496413	0.023229	3.268043
232.018161	3304.404816	1.501417	0.023182	3.273042
232.408551	3315.408396	1.506422	0.023106	3.278041
232.870718	3326.423222	1.511427	0.023016	3.283046
233.604340	3337.425040	1.516432	0.022876	3.288073
234.015634	3348.466782	1.521436	0.022796	3.293068
234.460780	3359.466410	1.526441	0.022710	3.298042
234.974152	3370.479026	1.531446	0.022611	3.303022
235.423479	3381.511609	1.536451	0.022524	3.307995
235.841883	3392.513874	1.541455	0.022442	3.312944
236.605860	3403.523327	1.546460	0.022296	3.317931
236.737200	3414.576334	1.551465	0.022269	3.322851
237.310835	3425.578141	1.556469	0.022159	3.327796
237.586094	3436.612978	1.561474	0.022104	3.332711
238.024826	3447.606747	1.566479	0.022019	3.337621
238.489123	3458.623366	1.571484	0.021929	3.342537
239.156126	3469.635542	1.576488	0.021801	3.347469
239.569720	3480.658026	1.581493	0.021721	3.352367
239.989645	3491.690269	1.586498	0.021640	3.357262
240.323068	3502.699269	1.591503	0.021574	3.362129
240.874631	3513.710944	1.596507	0.021468	3.367017
241.407316	3524.705875	1.601512	0.021365	3.371888
241.907366	3535.737138	1.606517	0.021269	3.376764
242.398496	3546.750063	1.611521	0.021174	3.381624
242.837969	3557.783749	1.616526	0.021089	3.386479
243.340499	3568.787274	1.621531	0.020992	3.391322
243.756438	3579.805334	1.626536	0.020911	3.396154
244.276922	3590.826842	1.631540	0.020811	3.400993
244.763251	3601.853154	1.636545	0.020717	3.405822
244.979845	3612.860226	1.641550	0.020673	3.410604
245.458612	3623.854767	1.646555	0.020581	3.415406
245.853843	3634.894306	1.651559	0.020504	3.420210
246.381128	3645.883239	1.656564	0.020402	3.425001
246.583204	3656.958812	1.661569	0.020362	3.429783
246.971051	3667.939483	1.666573	0.020286	3.434540
247.485884	3678.967618	1.671578	0.020187	3.439326
247.832721	3689.977098	1.676583	0.020119	3.444078
248.256515	3701.002752	1.681588	0.020037	3.448839
248.661015	3712.011303	1.686592	0.019958	3.453583
248.859166	3723.036647	1.691597	0.019918	3.458304
249.341913	3734.020011	1.696602	0.019825	3.463034
249.733477	3745.069718	1.701606	0.019749	3.467774
250.214882	3756.054959	1.706611	0.019656	3.472492
250.698135	3767.088265	1.711616	0.019562	3.477223
251.207647	3778.089972	1.716621	0.019464	3.481938
251.620048	3789.130033	1.721625	0.019384	3.486651
251.903119	3800.150557	1.726630	0.019328	3.491334
252.171067	3811.155447	1.731635	0.019275	3.496003
252.763696	3822.154741	1.736640	0.019161	3.500700
253.121099	3833.195762	1.741644	0.019091	3.505381
253.584277	3844.202896	1.746649	0.019001	3.510055
253.775590	3855.228494	1.751654	0.018963	3.514698
254.342414	3866.225474	1.756658	0.018854	3.519366
254.859292	3877.264634	1.761663	0.018754	3.524040
255.208581	3888.297911	1.766668	0.018686	3.528685
255.532160	3899.270615	1.771673	0.018622	3.533297
256.141330	3910.284738	1.776677	0.018505	3.537952
256.506044	3921.311089	1.781682	0.018434	3.542578
256.916340	3932.326307	1.786687	0.018354	3.547199
257.042004	3943.360961	1.791692	0.018328	3.551789
257.617195	3954.355645	1.796696	0.018217	3.556408
257.987752	3965.387169	1.801701	0.018145	3.561012
258.477263	3976.381572	1.806706	0.018051	3.565609
258.929656	3987.405156	1.811710	0.017963	3.570207
259.374451	3998.419635	1.816715	0.017877	3.574795
259.673614	4009.445313	1.821720	0.017818	3.579365
260.159490	4020.460299	1.826725	0.017724	3.583946
260.686797	4031.482513	1.831729	0.017622	3.588528
261.173265	4042.467751	1.836734	0.017528	3.593084
261.725528	4053.525308	1.841739	0.017422	3.597672
262.016806	4064.522109	1.846744	0.017365	3.602200
262.545618	4075.551414	1.851748	0.017263	3.606762
263.016351	4086.537128	1.856753	0.017172	3.611293
263.696857	4097.580855	1.861758	0.017041	3.615865
263.963385	4108.651887	1.866762	0.016988	3.620398
264.210771	4119.640633	1.871767	0.016939	3.624889
264.799384	4130.649563	1.876772	0.016826	3.629420
265.268104	4141.693044	1.881777	0.016735	3.633946
265.590200	4152.696206	1.886781	0.016672	3.638434
265.899892	4163.736621	1.891786	0.016611	3.642930
266.349217	4174.740858	1.896791	0.016524	3.647421
266.828251	4185.705503	1.901795	0.016432	3.651894
267.239784	4196.773199	1.906800	0.016352	3.656395
267.732148	4207.752820	1.911805	0.016257	3.660864
268.328042	4218.794447	1.916810	0.016142	3.665363
268.506280	4229.828517	1.921814	0.016106	3.669810
268.972778	4240.802688	1.926819	0.016016	3.674257
269.122995	4251.853335	1.931824	0.015985	3.678696
269.670182	4262.861778	1.936829	0.015879	3.683155
270.011378	4273.910643	1.941833	0.015813	3.687602
270.268594	4284.857277	1.946838	0.015762	3.691995
270.856115	4295.905690	1.951843	0.015649	3.696457
271.189242	4306.893090	1.956847	0.015584	3.700863
271.599163	4317.935945	1.961852	0.015504	3.705294
272.137025	4328.943296	1.966857	0.015400	3.709718
272.434866	4339.966073	1.971862	0.015342	3.714119
272.870429	4350.957693	1.976866	0.015257	3.718516
273.131409	4362.032543	1.981871	0.015205	3.722923
273.605249	4373.012527	1.986876	0.015114	3.727308
273.846666	4384.023348	1.991881	0.015066	3.731677
274.359403	4395.023804	1.996885	0.014967	3.736065
274.841789	4406.054221	2.001890	0.014874	3.740456
