Wed Nov 23 19:06:18 2022

Number of Points = 2200
Depth (nm)	Load (µN)	Time (s)	Depth (V)	Load (V)
-2.159083	1.771846	0.000000	0.011317	1.027237
0.000000	7.662058	0.005005	0.010911	1.036770
2.295632	16.750259	0.010009	0.010478	1.050772
4.665692	27.392210	0.015014	0.010030	1.066770
6.371313	38.557056	0.020019	0.009707	1.082907
7.739221	49.786820	0.025024	0.009448	1.098726
8.580322	61.064638	0.030028	0.009287	1.114127
9.460791	72.203660	0.035033	0.009119	1.129156
10.091068	83.389068	0.040038	0.008998	1.143927
10.684718	94.515865	0.045043	0.008884	1.158419
11.240063	105.653907	0.050047	0.008777	1.172727
12.835260	116.516208	0.055052	0.008475	1.186993
14.195650	127.680915	0.060057	0.008217	1.201354
15.285302	138.819613	0.065061	0.008010	1.215392
16.309480	149.991009	0.070066	0.007815	1.229280
16.950597	161.148085	0.075071	0.007692	1.242830
17.800670	172.212201	0.080076	0.007530	1.256213
18.651509	183.295722	0.085080	0.007367	1.269478
19.626507	194.353345	0.090085	0.007182	1.282627
21.062058	205.387901	0.095090	0.006910	1.295806
21.881824	216.607367	0.100094	0.006753	1.308807
22.929336	227.627213	0.105099	0.006554	1.321550
23.860632	238.722122	0.110104	0.006376	1.334207
24.603446	249.816126	0.115109	0.006234	1.346669
25.696536	260.844948	0.120113	0.006026	1.359083
26.474563	271.990725	0.125118	0.005877	1.371386
27.272815	283.067897	0.130123	0.005725	1.383515
28.077100	294.099666	0.135128	0.005571	1.395492
28.744347	305.242933	0.140132	0.005443	1.407432
29.622227	316.240239	0.145137	0.005276	1.419198
30.377858	327.348317	0.150142	0.005131	1.430935
31.243256	338.390513	0.155146	0.004966	1.442550
31.963853	349.491218	0.160151	0.004828	1.454078
32.864409	360.515939	0.165156	0.004657	1.465504
33.599309	371.610619	0.170161	0.004516	1.476851
34.265915	382.676920	0.175165	0.004388	1.488058
35.078625	393.727500	0.180170	0.004233	1.499218
35.935365	404.757798	0.185175	0.004069	1.510290
36.588375	415.876004	0.190180	0.003944	1.521296
37.349348	426.886260	0.195184	0.003799	1.532155
38.067437	437.988661	0.200189	0.003661	1.543011
38.858387	449.009079	0.205194	0.003510	1.553738
39.700353	460.053116	0.210198	0.003349	1.564431
40.302223	471.156057	0.215203	0.003234	1.575025
40.968925	482.187748	0.220208	0.003106	1.585503
41.824066	493.207612	0.225213	0.002943	1.595963
42.448253	504.325274	0.230217	0.002823	1.606369
43.180463	515.323387	0.235222	0.002683	1.616634
43.937811	526.390917	0.240227	0.002538	1.626904
44.695006	537.417502	0.245232	0.002393	1.637073
45.201463	548.521114	0.250236	0.002295	1.647168
46.055838	559.499106	0.255241	0.002132	1.657199
46.846675	570.561034	0.260246	0.001981	1.667224
47.631763	581.608504	0.265250	0.001831	1.677174
48.140820	592.712124	0.270255	0.001733	1.687028
48.726752	603.732673	0.275260	0.001620	1.696777
49.539039	614.751763	0.280265	0.001465	1.706537
50.207515	625.794742	0.285269	0.001337	1.716218
50.642496	636.897844	0.290274	0.001252	1.725826
51.257774	647.905605	0.295279	0.001134	1.735354
51.729552	658.968654	0.300283	0.001043	1.744833
52.383167	669.980406	0.305288	0.000917	1.754271
53.133150	681.010068	0.310293	0.000774	1.763701
53.842487	692.066592	0.315298	0.000638	1.773092
54.480572	703.107459	0.320302	0.000516	1.782399
55.103315	714.151941	0.325307	0.000396	1.791656
55.756391	725.175197	0.330312	0.000271	1.800857
56.290404	736.239938	0.335317	0.000168	1.810010
56.975750	747.263375	0.340321	0.000037	1.819126
57.432327	758.330632	0.345326	-0.000052	1.828168
57.900766	769.372536	0.350331	-0.000142	1.837148
58.555994	780.385684	0.355335	-0.000268	1.846113
59.150080	791.419101	0.360340	-0.000382	1.855033
59.586422	802.497714	0.365345	-0.000467	1.863903
59.900838	813.526363	0.370350	-0.000529	1.872658
60.547267	824.524706	0.375354	-0.000653	1.881439
61.252793	835.557767	0.380359	-0.000788	1.890221
61.883975	846.592518	0.385364	-0.000909	1.898944
62.492814	857.645244	0.390369	-0.001026	1.907635
63.041064	868.692579	0.395373	-0.001132	1.916266
63.481023	879.726638	0.400378	-0.001217	1.924819
64.044474	890.763025	0.405383	-0.001325	1.933368
64.360471	901.807460	0.410387	-0.001387	1.941821
65.019698	912.807018	0.415392	-0.001514	1.950293
65.381494	923.874998	0.420397	-0.001584	1.958701
65.748111	934.900385	0.425402	-0.001656	1.967043
66.618915	945.883923	0.430406	-0.001822	1.975449
67.278007	956.916995	0.435411	-0.001948	1.983800
67.735678	967.997077	0.440416	-0.002037	1.992100
68.445851	978.999093	0.445421	-0.002173	2.000372
68.804413	990.079867	0.450425	-0.002243	2.008578
69.075843	1001.125400	0.455430	-0.002297	2.016704
69.536190	1012.108526	0.460435	-0.002386	2.024798
70.188157	1023.117887	0.465439	-0.002511	2.032927
70.755782	1034.208946	0.470444	-0.002620	2.041061
71.230017	1045.217921	0.475449	-0.002712	2.049080
71.746831	1056.234747	0.480454	-0.002812	2.057085
72.113384	1067.308284	0.485458	-0.002883	2.065061
72.608192	1078.312317	0.490463	-0.002979	2.072989
73.240002	1089.308888	0.495468	-0.003100	2.080914
74.203190	1100.318140	0.500472	-0.003283	2.088897
74.872579	1111.408682	0.505477	-0.003412	2.096836
75.076322	1122.451665	0.510482	-0.003453	2.104601
75.542656	1133.458576	0.515487	-0.003543	2.112375
75.737560	1144.535679	0.520491	-0.003582	2.120104
76.502610	1155.468412	0.525496	-0.003729	2.127840
76.750222	1166.588555	0.530501	-0.003778	2.135555
77.201624	1177.585657	0.535506	-0.003865	2.143205
77.704324	1188.593382	0.540510	-0.003962	2.150847
78.031062	1199.646622	0.545515	-0.004026	2.158452
78.494537	1210.665536	0.550520	-0.004116	2.166039
79.043579	1221.684363	0.555524	-0.004222	2.173618
79.392802	1232.732456	0.560529	-0.004290	2.181145
79.962090	1243.738540	0.565534	-0.004399	2.188668
80.343273	1254.786705	0.570539	-0.004474	2.196150
80.797608	1265.787413	0.575543	-0.004562	2.203592
81.294444	1276.813216	0.580548	-0.004658	2.211034
82.042857	1287.833221	0.585553	-0.004801	2.218504
82.355337	1298.886242	0.590558	-0.004862	2.225873
82.778310	1309.922946	0.595562	-0.004944	2.233232
83.170135	1320.935754	0.600567	-0.005021	2.240543
83.717444	1331.956988	0.605572	-0.005126	2.247871
84.140791	1343.018521	0.610576	-0.005208	2.255173
84.391680	1354.029504	0.615581	-0.005258	2.262382
84.935363	1364.992109	0.620586	-0.005363	2.269599
85.493863	1376.075913	0.625591	-0.005470	2.276875
85.957126	1387.079711	0.630595	-0.005560	2.284056
86.535841	1398.103064	0.635600	-0.005671	2.291251
86.947495	1409.150488	0.640605	-0.005751	2.298403
87.440906	1420.148883	0.645610	-0.005846	2.305519
88.046390	1431.153634	0.650614	-0.005963	2.312641
88.732648	1442.212593	0.655619	-0.006094	2.319792
89.267321	1453.210367	0.660624	-0.006197	2.326850
89.777196	1464.277453	0.665628	-0.006296	2.333925
90.099546	1475.302676	0.670633	-0.006359	2.340913
90.588277	1486.301494	0.675638	-0.006453	2.347898
90.899588	1497.363282	0.680643	-0.006515	2.354866
91.193877	1508.363962	0.685647	-0.006573	2.361770
91.557838	1519.402508	0.690652	-0.006644	2.368693
92.010721	1530.417267	0.695657	-0.006731	2.375598
92.267878	1541.440909	0.700661	-0.006782	2.382450
92.755775	1552.455962	0.705666	-0.006877	2.389322
93.273447	1563.475332	0.710671	-0.006976	2.396184
93.769256	1574.516647	0.715676	-0.007072	2.403035
94.059908	1585.537449	0.720680	-0.007129	2.409812
94.440011	1596.589400	0.725685	-0.007203	2.416607
94.795186	1607.550246	0.730690	-0.007273	2.423323
95.474098	1618.593075	0.735695	-0.007403	2.430134
95.714931	1629.624779	0.740699	-0.007451	2.436832
96.255842	1640.653187	0.745704	-0.007555	2.443569
96.647399	1651.661848	0.750709	-0.007631	2.450247
97.165025	1662.684241	0.755713	-0.007731	2.456938
97.533570	1673.730304	0.760718	-0.007803	2.463597
97.929060	1684.736245	0.765723	-0.007880	2.470219
98.485425	1695.760718	0.770728	-0.007987	2.476864
98.811270	1706.791866	0.775732	-0.008051	2.483452
99.193785	1717.808913	0.780737	-0.008125	2.490025
99.480376	1728.856002	0.785742	-0.008182	2.496579
99.841944	1739.847994	0.790747	-0.008253	2.503098
100.319079	1750.870120	0.795751	-0.008345	2.509640
100.742074	1761.893467	0.800756	-0.008427	2.516155
101.201387	1772.921077	0.805761	-0.008516	2.522662
101.505191	1783.953341	0.810765	-0.008576	2.529126
101.972789	1794.950771	0.815770	-0.008666	2.535584
102.594537	1805.958205	0.820775	-0.008785	2.542060
103.109611	1817.018454	0.825780	-0.008885	2.548530
103.595475	1828.010376	0.830784	-0.008979	2.554938
103.970036	1839.075721	0.835789	-0.009052	2.561352
104.185109	1850.083506	0.840794	-0.009095	2.567688
104.508648	1861.167991	0.845799	-0.009158	2.574071
104.720030	1872.115201	0.850803	-0.009201	2.580340
105.074899	1883.158323	0.855808	-0.009270	2.586674
105.562673	1894.153800	0.860813	-0.009364	2.592990
105.845727	1905.184570	0.865817	-0.009420	2.599273
106.501188	1916.168622	0.870822	-0.009546	2.605582
107.034776	1927.230592	0.875827	-0.009649	2.611897
107.352633	1938.239679	0.880832	-0.009711	2.618129
107.866479	1949.235169	0.885836	-0.009810	2.624373
108.390072	1960.299232	0.890841	-0.009911	2.630642
108.658462	1971.314044	0.895846	-0.009964	2.636823
109.131017	1982.324905	0.900850	-0.010056	2.643024
109.627135	1993.333047	0.905855	-0.010151	2.649212
110.019488	2004.373742	0.910860	-0.010228	2.655386
110.539763	2015.368849	0.915865	-0.010328	2.661543
111.090131	2026.414060	0.920869	-0.010434	2.667718
111.657318	2037.401135	0.925874	-0.010543	2.673849
111.931214	2048.444929	0.930879	-0.010597	2.679947
112.398411	2059.455328	0.935884	-0.010688	2.686046
112.736406	2070.474919	0.940888	-0.010754	2.692113
112.979417	2081.506176	0.945893	-0.010802	2.698157
113.292583	2092.491976	0.950898	-0.010864	2.704175
113.873178	2103.533116	0.955902	-0.010975	2.710255
114.088587	2114.544879	0.960907	-0.011019	2.716243
115.543869	2125.453929	0.965912	-0.011294	2.722372
116.618568	2136.550439	0.970917	-0.011499	2.728524
117.100059	2147.608310	0.975921	-0.011592	2.734541
117.656253	2158.617513	0.980926	-0.011699	2.740531
118.052263	2169.652061	0.985931	-0.011776	2.746495
118.375723	2180.680508	0.990936	-0.011839	2.752430
118.557006	2191.702520	0.995940	-0.011876	2.758326
118.862611	2202.712388	1.000945	-0.011936	2.764222
119.589843	2213.710494	1.005950	-0.012075	2.770170
119.870052	2224.756907	1.010954	-0.012131	2.776057
120.340839	2235.761136	1.015959	-0.012222	2.781940
120.723024	2246.776502	1.020964	-0.012296	2.787802
121.407269	2257.755354	1.025969	-0.012427	2.793681
122.606375	2268.754761	1.030973	-0.012655	2.799643
123.382048	2279.834882	1.035978	-0.012803	2.805565
123.805600	2290.876320	1.040983	-0.012886	2.811397
124.354175	2301.891612	1.045988	-0.012991	2.817224
124.865043	2312.875940	1.050992	-0.013090	2.823016
125.358122	2323.919688	1.055997	-0.013185	2.828824
125.614800	2334.968740	1.061002	-0.013236	2.834585
126.187589	2345.931959	1.066006	-0.013346	2.840341
126.252868	2357.016086	1.071011	-0.013361	2.846066
126.712032	2368.011987	1.076016	-0.013450	2.851797
127.051468	2379.005401	1.081021	-0.013516	2.857496
127.450505	2390.036959	1.086025	-0.013594	2.863212
127.913281	2401.062873	1.091030	-0.013684	2.868924
128.143488	2412.106910	1.096035	-0.013729	2.874597
128.346291	2423.103552	1.101039	-0.013770	2.880231
128.857558	2434.101052	1.106044	-0.013869	2.885902
129.203400	2445.160434	1.111049	-0.013937	2.891568
129.550216	2456.171270	1.116054	-0.014004	2.897198
129.722541	2467.180058	1.121058	-0.014039	2.902788
130.250668	2478.170854	1.126063	-0.014141	2.908414
130.647989	2489.202412	1.131068	-0.014219	2.914030
130.952125	2500.242492	1.136073	-0.014278	2.919624
131.287485	2511.251590	1.141077	-0.014344	2.925197
131.665049	2522.272338	1.146082	-0.014418	2.930771
131.962233	2533.290188	1.151087	-0.014476	2.936321
132.366663	2544.302884	1.156091	-0.014555	2.941874
132.624690	2555.324831	1.161096	-0.014606	2.947399
133.158177	2566.323149	1.166101	-0.014709	2.952943
133.305179	2577.377394	1.171106	-0.014739	2.958447
133.642481	2588.392217	1.176110	-0.014805	2.963949
134.082347	2599.393689	1.181115	-0.014890	2.969450
134.739623	2610.399118	1.186120	-0.015016	2.974974
135.339122	2621.403212	1.191125	-0.015131	2.980479
135.755258	2632.460142	1.196129	-0.015212	2.985973
136.080810	2643.484289	1.201134	-0.015276	2.991427
136.509746	2654.464581	1.206139	-0.015359	2.996864
136.779965	2665.506673	1.211143	-0.015413	3.002299
137.239092	2676.520607	1.216148	-0.015502	3.007737
137.878701	2687.517466	1.221153	-0.015624	3.013184
138.228944	2698.576125	1.226158	-0.015693	3.018608
138.564402	2709.570597	1.231162	-0.015759	3.023990
138.781525	2720.624348	1.236167	-0.015802	3.029373
139.006663	2731.614142	1.241172	-0.015847	3.034717
139.344732	2742.648734	1.246177	-0.015913	3.040089
139.598559	2753.662204	1.251181	-0.015963	3.045430
140.107216	2764.686190	1.256186	-0.016062	3.050803
140.337242	2775.680411	1.261191	-0.016108	3.056112
140.766254	2786.686917	1.266195	-0.016191	3.061445
141.158680	2797.704375	1.271200	-0.016267	3.066770
141.658622	2808.738249	1.276205	-0.016364	3.072108
141.759350	2819.762246	1.281210	-0.016385	3.077376
142.286901	2830.776463	1.286214	-0.016487	3.082690
142.791657	2841.777542	1.291219	-0.016584	3.087986
143.284455	2852.812142	1.296224	-0.016680	3.093286
143.275829	2863.848184	1.301228	-0.016681	3.098508
143.653921	2874.838130	1.306233	-0.016754	3.103754
143.875327	2885.888047	1.311238	-0.016799	3.108996
144.212909	2896.878121	1.316243	-0.016865	3.114218
144.546411	2907.906155	1.321247	-0.016930	3.119449
144.868292	2918.929846	1.326252	-0.016993	3.124666
145.165607	2929.952192	1.331257	-0.017052	3.129871
145.546216	2940.946012	1.336262	-0.017126	3.135066
145.966090	2951.971702	1.341266	-0.017207	3.140272
146.381616	2962.987921	1.346271	-0.017288	3.145464
146.689027	2974.023582	1.351276	-0.017348	3.150642
146.967990	2985.004682	1.356280	-0.017404	3.155782
147.356558	2996.039957	1.361285	-0.017479	3.160953
147.786676	3007.060660	1.366290	-0.017563	3.166115
148.159584	3018.063113	1.371295	-0.017635	3.171253
148.453705	3029.097978	1.376299	-0.017693	3.176386
148.807192	3040.106586	1.381304	-0.017762	3.181506
149.213993	3051.130009	1.386309	-0.017841	3.186633
149.518701	3062.144838	1.391314	-0.017901	3.191733
149.877944	3073.165170	1.396318	-0.017971	3.196835
150.146173	3084.178717	1.401323	-0.018024	3.201914
150.551323	3095.207923	1.406328	-0.018103	3.207009
150.742535	3106.226012	1.411332	-0.018142	3.212064
151.020063	3117.231194	1.416337	-0.018197	3.217115
151.275045	3128.235757	1.421342	-0.018247	3.222156
151.762353	3139.264315	1.426347	-0.018341	3.227230
152.000119	3150.283529	1.431351	-0.018389	3.232259
152.343210	3161.295312	1.436356	-0.018456	3.237290
152.464920	3172.321985	1.441361	-0.018481	3.242292
152.915676	3183.335523	1.446366	-0.018569	3.247322
152.996199	3194.368328	1.451370	-0.018587	3.252305
153.383833	3205.357737	1.456375	-0.018662	3.257301
153.868082	3216.355477	1.461380	-0.018756	3.262305
154.204767	3227.414269	1.466384	-0.018821	3.267310
154.402761	3238.425443	1.471389	-0.018861	3.272268
154.835856	3249.430994	1.476394	-0.018945	3.277246
155.041757	3260.444465	1.481399	-0.018987	3.282191
155.555781	3271.474397	1.486403	-0.019086	3.287175
155.681262	3282.506060	1.491408	-0.019112	3.292103
155.886312	3293.498686	1.496413	-0.019153	3.297016
156.056024	3304.527825	1.501417	-0.019188	3.301934
156.528636	3315.517781	1.506422	-0.019279	3.306865
156.811498	3326.548851	1.511427	-0.019335	3.311782
157.210635	3337.558665	1.516432	-0.019413	3.316698
157.445686	3348.595605	1.521436	-0.019460	3.321598
157.838827	3359.598645	1.526441	-0.019536	3.326495
158.148951	3370.611946	1.531446	-0.019597	3.331379
158.596442	3381.632060	1.536451	-0.019684	3.336276
158.813068	3392.634267	1.541455	-0.019727	3.341129
159.143313	3403.673426	1.546460	-0.019792	3.346005
159.437438	3414.699906	1.551465	-0.019850	3.350864
159.724766	3425.690227	1.556469	-0.019906	3.355700
159.953207	3436.733299	1.561474	-0.019952	3.360544
160.376192	3447.731431	1.566479	-0.020034	3.365385
160.562288	3458.784982	1.571484	-0.020072	3.370214
160.686022	3469.761253	1.576488	-0.020098	3.374996
161.042264	3480.790414	1.581493	-0.020167	3.379821
161.500168	3491.784880	1.586498	-0.020256	3.384637
162.093032	3502.812653	1.591503	-0.020370	3.389477
162.178802	3513.839136	1.596507	-0.020389	3.394248
163.070153	3524.798582	1.601512	-0.020559	3.399080
164.177577	3535.834763	1.606517	-0.020769	3.403964
164.635806	3546.883961	1.611521	-0.020858	3.408769
164.903798	3557.884911	1.616526	-0.020911	3.413524
165.224318	3568.910918	1.621531	-0.020974	3.418289
165.571123	3579.914674	1.626536	-0.021042	3.423040
165.843297	3590.983242	1.631540	-0.021095	3.427804
165.862085	3601.964916	1.636545	-0.021102	3.432494
166.086096	3612.985477	1.641550	-0.021146	3.437219
166.557875	3623.966893	1.646555	-0.021238	3.441949
166.885224	3635.057383	1.651559	-0.021302	3.446703
167.059827	3646.029004	1.656564	-0.021337	3.451381
167.380893	3657.039440	1.661569	-0.021400	3.456086
167.817086	3668.012105	1.666573	-0.021485	3.460783
169.063289	3679.010174	1.671578	-0.021721	3.465578
170.252262	3690.054453	1.676583	-0.021947	3.470378
170.647666	3701.109818	1.681588	-0.022024	3.475085
170.981093	3712.126298	1.686592	-0.022089	3.479762
171.214044	3723.169074	1.691597	-0.022136	3.484432
171.559664	3734.145479	1.696602	-0.022203	3.489080
171.739752	3745.186540	1.701606	-0.022240	3.493731
172.150809	3756.181687	1.706611	-0.022320	3.498382
172.687104	3767.189084	1.711616	-0.022423	3.503047
172.992430	3778.232671	1.716621	-0.022483	3.507694
173.348468	3789.224213	1.721625	-0.022553	3.512319
173.907466	3800.236166	1.726630	-0.022660	3.516969
174.081008	3811.283001	1.731635	-0.022696	3.521584
174.528781	3822.291924	1.736640	-0.022782	3.526208
174.749960	3833.321384	1.741644	-0.022827	3.530809
174.908648	3844.306199	1.746649	-0.022859	3.535378
175.174820	3855.341993	1.751654	-0.022912	3.539975
175.364099	3866.363255	1.756658	-0.022950	3.544551
175.730719	3877.353360	1.761663	-0.023021	3.549128
176.231263	3888.384042	1.766668	-0.023118	3.553730
176.462903	3899.435862	1.771673	-0.023164	3.558305
176.761426	3910.384591	1.776677	-0.023223	3.562840
177.089711	3921.455954	1.781682	-0.023287	3.567422
177.319500	3932.422782	1.786687	-0.023333	3.571944
177.699158	3943.471855	1.791692	-0.023407	3.576511
177.916146	3954.466691	1.796696	-0.023451	3.581032
178.210237	3965.513878	1.801701	-0.023509	3.585577
178.379552	3976.503031	1.806706	-0.023543	3.590079
178.719144	3987.526607	1.811710	-0.023610	3.594608
179.284052	3998.511985	1.816715	-0.023718	3.599140
179.662906	4009.579734	1.821720	-0.023792	3.603679
180.028400	4020.576836	1.826725	-0.023863	3.608183
180.283180	4031.596634	1.831729	-0.023914	3.612678
180.422918	4042.589959	1.836734	-0.023943	3.617144
180.710970	4053.623317	1.841739	-0.024000	3.621637
181.032579	4064.631580	1.846744	-0.024063	3.626118
181.268954	4075.660049	1.851748	-0.024110	3.630592
181.668224	4086.642981	1.856753	-0.024187	3.635060
181.896524	4097.723758	1.861758	-0.024233	3.639543
182.188027	4108.751984	1.866762	-0.024290	3.644006
182.371170	4119.773524	1.871767	-0.024328	3.648449
182.764221	4130.769762	1.876772	-0.024404	3.652900
183.260264	4141.803386	1.881777	-0.024500	3.657370
183.448664	4152.810704	1.886781	-0.024538	3.661792
183.691270	4163.836041	1.891786	-0.024586	3.666221
183.995814	4174.822674	1.896791	-0.024646	3.670637
184.305526	4185.872409	1.901795	-0.024707	3.675072
184.598293	4196.849154	1.906800	-0.024764	3.679471
184.921697	4207.895729	1.911805	-0.024828	3.683896
185.210531	4218.898019	1.916810	-0.024885	3.688294
185.508625	4229.935705	1.921814	-0.024943	3.692702
185.878507	4240.916881	1.926819	-0.025016	3.697090
186.327371	4251.946155	1.931824	-0.025103	3.701499
186.528781	4262.963953	1.936829	-0.025143	3.705874
186.753435	4273.990495	1.941833	-0.025188	3.710249
187.028487	4284.975182	1.946838	-0.025242	3.714607
187.538482	4295.995458	1.951843	-0.025341	3.718998
188.303235	4307.007773	1.956847	-0.025487	3.723407
188.602354	4318.046799	1.961852	-0.025546	3.727773
188.974514	4329.065046	1.966857	-0.025618	3.732133
189.272817	4340.072506	1.971862	-0.025677	3.736477
189.427626	4351.071741	1.976866	-0.025709	3.740798
