Wed Nov 23 19:25:19 2022

Number of Points = 2200
Depth (nm)	Load (µN)	Time (s)	Depth (V)	Load (V)
-3.301884	0.701314	0.000000	-0.017468	1.103775
0.000000	7.518062	0.005005	-0.018090	1.114387
2.621710	17.133409	0.010009	-0.018584	1.128210
4.140794	28.149583	0.015014	-0.018872	1.143141
5.532957	39.247563	0.020019	-0.019136	1.157923
6.510298	50.469553	0.025024	-0.019322	1.172482
7.310332	61.637264	0.030028	-0.019475	1.186714
7.955864	72.785884	0.035033	-0.019599	1.200685
8.224860	83.976739	0.040038	-0.019652	1.214379
8.541737	95.074054	0.045043	-0.019714	1.227830
10.498075	105.810199	0.050047	-0.020084	1.241416
12.180434	116.926378	0.055052	-0.020402	1.255180
13.596804	128.079740	0.060057	-0.020671	1.268725
15.086305	139.188633	0.065061	-0.020953	1.282105
16.301361	150.325928	0.070066	-0.021184	1.295265
17.688852	161.427368	0.075071	-0.021447	1.308322
19.699021	172.343151	0.080076	-0.021827	1.321294
21.234511	183.536466	0.085080	-0.022118	1.334254
22.797150	194.585456	0.090085	-0.022414	1.346942
23.993060	205.760960	0.095090	-0.022641	1.359504
25.590828	216.716368	0.100094	-0.022943	1.371870
27.113335	227.867181	0.105099	-0.023232	1.384303
28.864318	238.852047	0.110104	-0.023563	1.396537
30.446244	249.992197	0.115109	-0.023863	1.408762
31.809819	261.082190	0.120113	-0.024121	1.420747
32.963316	272.207826	0.125118	-0.024340	1.432590
34.278597	283.242350	0.130123	-0.024590	1.444303
35.671984	294.298641	0.135128	-0.024854	1.455970
36.772530	305.409656	0.140132	-0.025063	1.467493
38.140520	316.444464	0.145137	-0.025323	1.478946
39.007796	327.582761	0.150142	-0.025488	1.490234
39.876258	338.649675	0.155146	-0.025654	1.501368
41.122074	349.624980	0.160151	-0.025890	1.512462
42.090546	360.762217	0.165156	-0.026075	1.523535
43.004075	371.808560	0.170161	-0.026249	1.534421
43.831775	382.884431	0.175165	-0.026407	1.545230
44.817140	393.926247	0.180170	-0.026595	1.555983
46.023055	404.937361	0.185175	-0.026824	1.566708
47.089216	416.022540	0.190180	-0.027026	1.577381
48.088059	427.076069	0.195184	-0.027217	1.587931
48.683860	438.193008	0.200189	-0.027331	1.598336
49.724749	449.171208	0.205194	-0.027529	1.608693
50.718663	460.256293	0.210198	-0.027718	1.619064
51.866121	471.249044	0.215203	-0.027936	1.629334
52.575626	482.372719	0.220208	-0.028072	1.639518
53.442444	493.414457	0.225213	-0.028238	1.649615
54.219987	504.466715	0.230217	-0.028386	1.659632
55.043390	515.498700	0.235222	-0.028544	1.669584
55.975404	526.534208	0.240227	-0.028721	1.679514
56.733763	537.595162	0.245232	-0.028866	1.689354
57.194491	548.714949	0.250236	-0.028955	1.699096
57.821858	559.710221	0.255241	-0.029076	1.708727
58.682649	570.719601	0.260246	-0.029240	1.718385
59.466819	581.763143	0.265250	-0.029390	1.727995
60.643114	592.761988	0.270255	-0.029613	1.737630
61.440280	603.857010	0.275260	-0.029766	1.747180
62.265621	614.907259	0.280265	-0.029923	1.756649
62.857396	625.972944	0.285269	-0.030037	1.766012
63.674057	636.981745	0.290274	-0.030193	1.775343
64.367658	648.031314	0.295279	-0.030326	1.784623
65.197358	659.048547	0.300283	-0.030484	1.793867
66.031281	670.097425	0.305288	-0.030644	1.803090
66.803600	681.158267	0.310293	-0.030791	1.812258
67.574051	692.196232	0.315298	-0.030939	1.821361
68.210841	703.221825	0.320302	-0.031061	1.830370
69.026868	714.247507	0.325307	-0.031217	1.839386
69.635880	725.351838	0.330312	-0.031334	1.848362
70.139371	736.375379	0.335317	-0.031431	1.857201
70.969469	747.357667	0.340321	-0.031589	1.866056
71.730538	758.423511	0.345326	-0.031735	1.874914
72.438196	769.448853	0.350331	-0.031870	1.883685
73.117988	780.501962	0.355335	-0.032001	1.892429
73.843095	791.524420	0.360340	-0.032140	1.901121
74.503158	802.564676	0.365345	-0.032266	1.909769
75.166743	813.616335	0.370350	-0.032393	1.918388
75.888414	824.631567	0.375354	-0.032532	1.926955
76.600928	835.681790	0.380359	-0.032668	1.935508
77.055171	846.721813	0.385364	-0.032756	1.943949
77.677527	857.751429	0.390369	-0.032875	1.952388
78.325830	868.750398	0.395373	-0.033000	1.960775
79.278415	879.790338	0.400378	-0.033181	1.969234
79.797224	890.840036	0.405383	-0.033281	1.977553
80.552292	901.872682	0.410387	-0.033426	1.985884
81.351173	912.869594	0.415392	-0.033578	1.994165
81.839414	923.974607	0.420397	-0.033673	2.002413
82.318573	934.996881	0.425402	-0.033765	2.010564
82.872354	946.012514	0.430406	-0.033872	2.018695
83.441416	957.051359	0.435411	-0.033982	2.026814
84.094864	968.061708	0.440416	-0.034107	2.034901
84.856919	979.079299	0.445421	-0.034253	2.042988
85.358793	990.156258	0.450425	-0.034350	2.051021
85.901731	1001.163124	0.455430	-0.034454	2.058983
86.356785	1012.219437	0.460435	-0.034542	2.066927
86.856931	1023.237101	0.465439	-0.034639	2.074825
87.523572	1034.257807	0.470444	-0.034767	2.082734
87.925905	1045.322751	0.475449	-0.034845	2.090581
88.680686	1056.307285	0.480454	-0.034989	2.098427
89.294930	1067.346895	0.485458	-0.035107	2.106247
89.946171	1078.394905	0.490463	-0.035232	2.114053
90.265614	1089.428703	0.495468	-0.035295	2.121743
90.825984	1100.454764	0.500472	-0.035403	2.129456
91.536977	1111.435367	0.505477	-0.035539	2.137144
92.222177	1122.507266	0.510482	-0.035670	2.144861
92.850416	1133.501893	0.515487	-0.035791	2.152484
93.421944	1144.573148	0.520491	-0.035901	2.160119
93.619599	1155.629298	0.525496	-0.035941	2.167632
94.235641	1166.607685	0.530501	-0.036059	2.175161
95.081284	1177.610195	0.535506	-0.036220	2.182732
95.744793	1188.650219	0.540510	-0.036347	2.190260
96.328748	1199.701292	0.545515	-0.036460	2.197752
96.786894	1210.739257	0.550520	-0.036548	2.205182
97.273175	1221.753328	0.555524	-0.036642	2.212577
97.928750	1232.767407	0.560529	-0.036768	2.219985
98.413572	1243.803248	0.565534	-0.036862	2.227344
98.975585	1254.844564	0.570539	-0.036970	2.234699
99.261461	1265.872598	0.575543	-0.037026	2.241961
99.700612	1276.903565	0.580548	-0.037112	2.249235
100.400124	1287.906268	0.585553	-0.037246	2.256524
100.868932	1298.951546	0.590558	-0.037336	2.263766
101.335643	1309.961155	0.595562	-0.037427	2.270961
102.072359	1320.972549	0.600567	-0.037568	2.278193
102.817699	1331.969922	0.605572	-0.037710	2.285394
103.562622	1343.036430	0.610576	-0.037853	2.292617
103.933524	1354.072221	0.615581	-0.037925	2.299718
104.805250	1365.029592	0.620586	-0.038091	2.306852
105.458976	1376.124944	0.625591	-0.038217	2.314006
105.887712	1387.138736	0.630595	-0.038300	2.321039
106.439990	1398.170265	0.635600	-0.038406	2.328088
106.821451	1409.212672	0.640605	-0.038481	2.335086
107.525061	1420.193366	0.645610	-0.038615	2.342092
107.833456	1431.265839	0.650614	-0.038676	2.349052
108.347545	1442.247237	0.655619	-0.038775	2.355977
109.163934	1453.274736	0.660624	-0.038931	2.362972
109.651735	1464.308697	0.665628	-0.039025	2.369883
110.264303	1475.328389	0.670633	-0.039143	2.376790
110.757209	1486.365518	0.675638	-0.039238	2.383663
111.255235	1497.373562	0.680643	-0.039334	2.390500
111.744129	1508.426380	0.685647	-0.039429	2.397343
112.265197	1519.438017	0.690652	-0.039529	2.404147
112.930787	1530.428266	0.695657	-0.039657	2.410948
113.956304	1541.421600	0.700661	-0.039852	2.417803
114.492663	1552.498986	0.705666	-0.039955	2.424592
115.069763	1563.514346	0.710671	-0.040066	2.431332
115.441827	1574.566502	0.715676	-0.040139	2.438036
115.978383	1585.573125	0.720680	-0.040242	2.444726
116.421187	1596.593914	0.725685	-0.040328	2.451388
117.248965	1607.610053	0.730690	-0.040486	2.458103
117.859192	1618.611015	0.735695	-0.040603	2.464749
118.231360	1629.692147	0.740699	-0.040676	2.471378
118.609369	1640.681183	0.745704	-0.040750	2.477936
119.254906	1651.707669	0.750709	-0.040874	2.484550
119.928683	1662.699126	0.755713	-0.041003	2.491131
120.741788	1673.742668	0.760718	-0.041158	2.497752
120.922634	1684.819986	0.765723	-0.041195	2.504254
121.473311	1695.794146	0.770728	-0.041301	2.510750
121.824524	1706.836554	0.775732	-0.041369	2.517231
122.179828	1717.872346	0.780737	-0.041439	2.523691
123.026298	1728.810058	0.785742	-0.041600	2.530171
123.660252	1739.896088	0.790747	-0.041722	2.536679
124.118644	1750.915371	0.795751	-0.041811	2.543100
124.540135	1761.932808	0.800756	-0.041893	2.549496
125.095480	1772.924735	0.805761	-0.041999	2.555886
125.966911	1783.977436	0.810765	-0.042166	2.562353
126.409475	1795.003597	0.815770	-0.042252	2.568710
126.913008	1806.084352	0.820775	-0.042349	2.575093
127.136443	1817.068788	0.825780	-0.042393	2.581354
127.803119	1828.042901	0.830784	-0.042521	2.587675
128.381242	1839.061493	0.835789	-0.042632	2.593989
128.851293	1850.120366	0.840794	-0.042723	2.600291
129.121457	1861.135774	0.845799	-0.042777	2.606518
129.783188	1872.133768	0.850803	-0.042904	2.612789
130.556440	1883.138043	0.855808	-0.043051	2.619069
131.383704	1894.149743	0.860813	-0.043209	2.625347
132.000817	1905.192875	0.865817	-0.043328	2.631590
132.676929	1916.226512	0.870822	-0.043458	2.637824
133.182616	1927.251194	0.875827	-0.043555	2.644007
133.620937	1938.280704	0.880832	-0.043640	2.650167
134.055980	1949.312225	0.885836	-0.043725	2.656313
134.647817	1960.301339	0.890841	-0.043838	2.662449
135.067720	1971.339700	0.895846	-0.043920	2.668567
135.485950	1982.365586	0.900850	-0.044001	2.674665
136.154214	1993.358134	0.905855	-0.044129	2.680773
136.746402	2004.396658	0.910860	-0.044243	2.686879
137.187063	2015.425995	0.915865	-0.044328	2.692940
137.828319	2026.416301	0.920869	-0.044451	2.699000
138.339099	2037.442038	0.925874	-0.044550	2.705044
139.095501	2048.449358	0.930879	-0.044695	2.711106
139.669546	2059.465295	0.935884	-0.044805	2.717127
140.349507	2070.498152	0.940888	-0.044935	2.723162
140.731390	2081.506983	0.945893	-0.045010	2.729121
141.392990	2092.545006	0.950898	-0.045137	2.735129
141.566664	2103.571181	0.955902	-0.045172	2.741036
142.190060	2114.560972	0.960907	-0.045292	2.746985
142.632925	2125.614809	0.965912	-0.045378	2.752926
142.928156	2136.625358	0.970917	-0.045436	2.758806
143.226196	2147.635241	0.975921	-0.045494	2.764674
143.784367	2158.662958	0.980926	-0.045602	2.770582
144.194520	2169.663079	0.985931	-0.045681	2.776438
144.715874	2180.714186	0.990936	-0.045782	2.782326
145.336464	2191.683316	0.995940	-0.045901	2.788175
146.120247	2202.704990	1.000945	-0.046051	2.794066
146.647292	2213.758195	1.005950	-0.046153	2.799918
147.057771	2224.786737	1.010954	-0.046232	2.805727
147.315545	2235.813224	1.015959	-0.046283	2.811498
147.662324	2246.827876	1.020964	-0.046351	2.817266
148.231507	2257.804525	1.025969	-0.046461	2.823037
148.716999	2268.864710	1.030973	-0.046555	2.828826
149.170018	2279.867824	1.035978	-0.046642	2.834569
149.573363	2290.904275	1.040983	-0.046721	2.840309
149.969364	2301.911618	1.045988	-0.046798	2.846021
150.704263	2312.920710	1.050992	-0.046938	2.851776
151.141726	2323.930785	1.055997	-0.047023	2.857473
151.679403	2334.965003	1.061002	-0.047127	2.863187
152.109904	2345.991006	1.066006	-0.047210	2.868868
152.588559	2357.011681	1.071011	-0.047303	2.874542
153.050979	2368.021478	1.076016	-0.047392	2.880198
153.755968	2379.021119	1.081021	-0.047527	2.885874
154.395953	2390.068107	1.086025	-0.047650	2.891553
154.805701	2401.099508	1.091030	-0.047730	2.897177
154.849792	2412.114881	1.096035	-0.047741	2.902726
155.280737	2423.119783	1.101039	-0.047824	2.908319
155.692405	2434.134171	1.106044	-0.047904	2.913902
156.190446	2445.160090	1.111049	-0.048001	2.919494
156.689106	2456.151209	1.116054	-0.048097	2.925057
157.182747	2467.221801	1.121058	-0.048192	2.930649
157.384358	2478.216247	1.126063	-0.048233	2.936147
158.030737	2489.224296	1.131068	-0.048357	2.941709
158.836471	2500.199921	1.136073	-0.048511	2.947269
159.380416	2511.271471	1.141077	-0.048616	2.952826
159.680921	2522.304622	1.146082	-0.048675	2.958317
159.903282	2533.315022	1.151087	-0.048719	2.963775
160.204378	2544.333622	1.156091	-0.048778	2.969238
160.511943	2555.355630	1.161096	-0.048839	2.974694
160.862435	2566.373162	1.166101	-0.048907	2.980144
161.453045	2577.365747	1.171106	-0.049021	2.985607
161.964306	2588.401742	1.176110	-0.049119	2.991070
162.501981	2599.397963	1.181115	-0.049223	2.996507
163.072605	2610.406148	1.186120	-0.049333	3.001944
163.547313	2621.462439	1.191125	-0.049425	3.007381
164.034866	2632.457400	1.196129	-0.049519	3.012781
164.395011	2643.488839	1.201134	-0.049589	3.018169
164.699786	2654.516848	1.206139	-0.049649	3.023538
165.253756	2665.536962	1.211143	-0.049756	3.028930
165.789540	2676.508076	1.216148	-0.049859	3.034286
166.083483	2687.588915	1.221153	-0.049917	3.039650
166.340474	2698.578146	1.226158	-0.049968	3.044956
166.769087	2709.616662	1.231162	-0.050051	3.050300
167.139963	2720.613056	1.236167	-0.050123	3.055606
167.775273	2731.617180	1.241172	-0.050245	3.060945
168.171622	2742.636058	1.246177	-0.050322	3.066247
168.459991	2753.685449	1.251181	-0.050379	3.071539
168.871168	2764.678289	1.256186	-0.050459	3.076812
169.306860	2775.710225	1.261191	-0.050544	3.082098
169.668637	2786.725952	1.266195	-0.050614	3.087357
170.245455	2797.729063	1.271200	-0.050725	3.092631
170.674943	2808.753978	1.276205	-0.050808	3.097886
171.054620	2819.779560	1.281210	-0.050882	3.103125
171.290060	2830.807482	1.286214	-0.050929	3.108336
171.611620	2841.823473	1.291219	-0.050992	3.113545
172.059747	2852.809674	1.296224	-0.051079	3.118749
172.907843	2863.815520	1.301228	-0.051241	3.124007
173.322264	2874.891120	1.306233	-0.051322	3.129230
173.690493	2885.883804	1.311238	-0.051393	3.134399
174.250709	2896.878421	1.316243	-0.051501	3.139587
174.610836	2907.923467	1.321247	-0.051572	3.144762
174.824807	2918.948242	1.326252	-0.051614	3.149899
175.294909	2929.949500	1.331257	-0.051705	3.155052
175.603677	2940.965592	1.336262	-0.051766	3.160181
176.196420	2951.976728	1.341266	-0.051880	3.165337
176.609713	2963.001030	1.346271	-0.051960	3.170467
177.150267	2974.002504	1.351276	-0.052064	3.175596
177.643051	2985.013065	1.356280	-0.052160	3.180713
178.035442	2996.077178	1.361285	-0.052236	3.185834
178.488475	3007.068802	1.366290	-0.052324	3.190921
178.928373	3018.085668	1.371295	-0.052409	3.196009
179.111358	3029.128477	1.376299	-0.052446	3.201067
179.639698	3040.126088	1.381304	-0.052548	3.206143
180.086729	3051.134923	1.386309	-0.052634	3.211204
180.301706	3062.165933	1.391314	-0.052678	3.216237
180.443023	3073.183967	1.396318	-0.052707	3.221246
180.943861	3084.199270	1.401323	-0.052803	3.226294
181.289126	3095.178882	1.406328	-0.052871	3.231297
181.800130	3106.232139	1.411332	-0.052970	3.236347
182.266397	3117.223036	1.416337	-0.053060	3.241355
182.662171	3128.284316	1.421342	-0.053137	3.246377
182.755223	3139.293996	1.426347	-0.053157	3.251330
183.360630	3150.282545	1.431351	-0.053273	3.256332
183.768102	3161.305450	1.436356	-0.053353	3.261315
184.155741	3172.325422	1.441361	-0.053428	3.266287
184.470021	3183.341504	1.446366	-0.053490	3.271241
184.816678	3194.368870	1.451370	-0.053557	3.276196
185.010513	3205.385179	1.456375	-0.053597	3.281119
185.444977	3216.401772	1.461380	-0.053681	3.286065
186.050749	3227.390187	1.466384	-0.053797	3.291013
186.449122	3238.432109	1.471389	-0.053875	3.295950
186.739722	3249.445954	1.476394	-0.053932	3.300855
187.220881	3260.459939	1.481399	-0.054025	3.305776
187.467164	3271.487182	1.486403	-0.054074	3.310666
187.929485	3282.493249	1.491408	-0.054163	3.315566
188.267176	3293.518594	1.496413	-0.054229	3.320452
188.755274	3304.535114	1.501417	-0.054324	3.325345
188.885359	3315.553849	1.506422	-0.054351	3.330188
189.417232	3326.554037	1.511427	-0.054453	3.335065
189.832531	3337.574361	1.516432	-0.054534	3.339930
190.527406	3348.574761	1.521436	-0.054667	3.344813
190.929081	3359.616946	1.526441	-0.054745	3.349670
191.196924	3370.636980	1.531446	-0.054798	3.354495
191.437739	3381.670653	1.536451	-0.054846	3.359315
191.895790	3392.662414	1.541455	-0.054935	3.364137
192.122504	3403.683926	1.546460	-0.054980	3.368937
192.594712	3414.683790	1.551465	-0.055071	3.373749
192.726049	3425.719801	1.556469	-0.055099	3.378530
193.253027	3436.724916	1.561474	-0.055200	3.383338
193.494053	3447.756260	1.566479	-0.055248	3.388116
194.035200	3458.741617	1.571484	-0.055353	3.392903
194.375118	3469.793186	1.576488	-0.055419	3.397688
194.964891	3480.770075	1.581493	-0.055533	3.402463
195.426562	3491.816046	1.586498	-0.055622	3.407247
195.848062	3502.807271	1.591503	-0.055704	3.411995
196.324670	3513.842125	1.596507	-0.055796	3.416762
196.814213	3524.846023	1.601512	-0.055890	3.421510
197.158323	3535.893421	1.606517	-0.055958	3.426253
197.574718	3546.891654	1.611521	-0.056039	3.430977
197.713566	3557.929047	1.616526	-0.056067	3.435678
197.881355	3568.942024	1.621531	-0.056102	3.440366
198.281740	3579.937121	1.626536	-0.056179	3.445067
198.725792	3590.977730	1.631540	-0.056266	3.449786
198.935390	3601.967328	1.636545	-0.056308	3.454450
199.317621	3613.007577	1.641550	-0.056382	3.459148
199.614699	3623.997509	1.646555	-0.056441	3.463810
200.157973	3635.025724	1.651559	-0.056545	3.468509
200.577422	3646.034102	1.656564	-0.056627	3.473179
200.926537	3657.051592	1.661569	-0.056695	3.477839
201.546884	3668.046663	1.666573	-0.056814	3.482513
201.876996	3679.102664	1.671578	-0.056879	3.487174
202.179064	3690.093884	1.676583	-0.056938	3.491799
202.492227	3701.129148	1.681588	-0.057000	3.496436
202.651581	3712.151435	1.686592	-0.057032	3.501045
203.250721	3723.141755	1.691597	-0.057147	3.505684
203.649440	3734.157973	1.696602	-0.057225	3.510305
203.891655	3745.193859	1.701606	-0.057273	3.514910
204.253002	3756.200866	1.706611	-0.057344	3.519511
204.749401	3767.230620	1.711616	-0.057439	3.524130
205.058117	3778.267062	1.716621	-0.057500	3.528724
205.298051	3789.258770	1.721625	-0.057548	3.533287
205.745191	3800.244648	1.726630	-0.057634	3.537864
206.033128	3811.266049	1.731635	-0.057691	3.542432
206.512310	3822.301392	1.736640	-0.057784	3.547021
206.823321	3833.312212	1.741644	-0.057845	3.551576
207.085452	3844.326960	1.746649	-0.057897	3.556120
207.367764	3855.355967	1.751654	-0.057953	3.560667
207.827578	3866.351757	1.756658	-0.058042	3.565214
208.150831	3877.364912	1.761663	-0.058105	3.569747
208.441453	3888.401090	1.766668	-0.058162	3.574280
208.836718	3899.394447	1.771673	-0.058239	3.578802
209.137511	3910.425744	1.776677	-0.058298	3.583322
209.387116	3921.476436	1.781682	-0.058348	3.587840
209.435230	3932.457920	1.786687	-0.058360	3.592301
209.905991	3943.451653	1.791692	-0.058451	3.596808
210.238494	3954.488626	1.796696	-0.058516	3.601311
210.776085	3965.489138	1.801701	-0.058619	3.605816
210.882859	3976.540771	1.806706	-0.058642	3.610290
211.302347	3987.520275	1.811710	-0.058724	3.614763
211.567328	3998.542231	1.816715	-0.058776	3.619230
212.206469	4009.559133	1.821720	-0.058899	3.623730
212.473659	4020.601431	1.826725	-0.058952	3.628195
212.787954	4031.606223	1.831729	-0.059013	3.632644
212.948659	4042.609134	1.836734	-0.059046	3.637071
213.358130	4053.634264	1.841739	-0.059126	3.641527
213.615928	4064.642035	1.846744	-0.059177	3.645955
214.063689	4075.650302	1.851748	-0.059264	3.650398
214.376460	4086.686644	1.856753	-0.059325	3.654832
214.532659	4097.715744	1.861758	-0.059357	3.659241
215.048385	4108.756829	1.866762	-0.059457	3.663688
215.504675	4119.763651	1.871767	-0.059545	3.668109
215.979884	4130.775281	1.876772	-0.059637	3.672528
216.619169	4141.801134	1.881777	-0.059759	3.676965
216.721710	4152.810332	1.886781	-0.059781	3.681334
217.217921	4163.844759	1.891786	-0.059877	3.685749
217.484416	4174.842655	1.896791	-0.059930	3.690120
217.924817	4185.852204	1.901795	-0.060015	3.694508
218.243528	4196.879061	1.906800	-0.060078	3.698885
218.369930	4207.931009	1.911805	-0.060104	3.703248
218.599940	4218.917621	1.916810	-0.060150	3.707590
218.939220	4229.920878	1.921814	-0.060217	3.711944
219.352327	4240.928636	1.926819	-0.060297	3.716303
219.801484	4251.941972	1.931824	-0.060384	3.720662
220.066542	4262.984937	1.936829	-0.060436	3.725009
220.530478	4273.969838	1.941833	-0.060526	3.729349
220.697174	4285.003577	1.946838	-0.060560	3.733672
221.295696	4296.009012	1.951843	-0.060675	3.738023
221.459049	4307.054443	1.956847	-0.060708	3.742340
221.783351	4318.060267	1.961852	-0.060772	3.746653
222.070776	4329.057140	1.966857	-0.060829	3.750954
