Wed Nov 23 18:09:14 2022

Number of Points = 2200
Depth (nm)	Load (µN)	Time (s)	Depth (V)	Load (V)
-0.230938	1.885195	0.000000	0.029062	0.975911
0.000000	8.030431	0.005005	0.029018	0.985279
0.479227	17.021195	0.010009	0.028925	0.998905
0.982849	27.590643	0.015014	0.028828	1.014657
1.429370	38.602927	0.020019	0.028742	1.030770
2.045614	49.693224	0.025024	0.028623	1.046834
2.743957	60.823766	0.030028	0.028490	1.062752
3.195957	72.007886	0.035033	0.028402	1.078384
3.533875	83.186332	0.040038	0.028336	1.093728
3.695470	94.352280	0.045043	0.028303	1.108756
4.239137	105.417706	0.050047	0.028198	1.123635
5.675692	116.159371	0.055052	0.027926	1.138326
11.425531	126.626518	0.060057	0.026844	1.154504
12.447722	138.466034	0.065061	0.026650	1.169995
13.643232	149.679170	0.070066	0.026423	1.184583
15.476866	160.689524	0.075071	0.026076	1.199031
16.830640	171.877931	0.080076	0.025819	1.213308
18.183218	183.027649	0.085080	0.025562	1.227371
18.984522	194.237703	0.090085	0.025409	1.241106
19.779365	205.349812	0.095090	0.025257	1.254573
20.572041	216.449711	0.100094	0.025106	1.267880
21.360598	227.538153	0.105099	0.024955	1.281035
22.485594	238.551002	0.110104	0.024741	1.294108
23.980753	249.622852	0.115109	0.024458	1.307268
25.229876	260.712186	0.120113	0.024221	1.320216
26.134689	271.853087	0.125118	0.024048	1.332956
26.653156	283.003245	0.130123	0.023948	1.345431
27.673589	293.988281	0.135128	0.023754	1.357810
29.270337	304.958372	0.140132	0.023452	1.370285
30.430484	316.127116	0.145137	0.023231	1.382690
31.071095	327.270989	0.150142	0.023108	1.394758
32.111671	338.289274	0.155146	0.022910	1.406743
33.563404	349.280556	0.160151	0.022635	1.418752
34.841949	360.375270	0.165156	0.022393	1.430701
35.862069	371.499109	0.170161	0.022198	1.442485
36.765180	382.579895	0.175165	0.022026	1.454087
37.874270	393.628935	0.180170	0.021815	1.465639
38.863747	404.697727	0.185175	0.021627	1.477077
39.953642	415.744054	0.190180	0.021420	1.488440
40.989334	426.808530	0.195184	0.021223	1.499714
42.131916	437.861940	0.200189	0.021006	1.510931
43.019001	448.971554	0.205194	0.020836	1.522030
44.146016	459.971354	0.210198	0.020622	1.533026
44.886247	471.126944	0.215203	0.020481	1.543958
46.165487	482.049424	0.220208	0.020238	1.554776
47.244344	493.156863	0.225213	0.020033	1.565625
48.514030	504.177855	0.230217	0.019792	1.576381
49.759255	515.242154	0.235222	0.019555	1.587096
50.612752	526.345652	0.240227	0.019392	1.597645
51.680136	537.370676	0.245232	0.019189	1.608123
53.190901	548.337720	0.250236	0.018903	1.618624
54.538021	559.437103	0.255241	0.018648	1.629123
55.349585	570.575030	0.260246	0.018493	1.639417
56.410955	581.546869	0.265250	0.018291	1.649578
57.295510	592.652982	0.270255	0.018122	1.659740
58.582604	603.637445	0.275260	0.017878	1.669858
59.796842	614.670486	0.280265	0.017647	1.679934
60.470708	625.830874	0.285269	0.017518	1.689894
61.449697	636.839052	0.290274	0.017332	1.699756
62.289336	647.889952	0.295279	0.017171	1.709556
63.180676	658.907350	0.300283	0.017001	1.719286
64.277129	669.938581	0.305288	0.016793	1.729035
65.533756	680.966312	0.310293	0.016554	1.738773
66.444077	692.049883	0.315298	0.016381	1.748401
67.129958	703.128396	0.320302	0.016249	1.757905
67.977229	714.148307	0.325307	0.016088	1.767356
68.758987	725.207979	0.330312	0.015938	1.776770
69.713426	736.192412	0.335317	0.015756	1.786122
70.896538	747.230972	0.340321	0.015532	1.795536
71.776973	758.292129	0.345326	0.015364	1.804831
72.537377	769.359550	0.350331	0.015218	1.814050
73.441321	780.379941	0.355335	0.015046	1.823224
74.596367	791.375777	0.360340	0.014826	1.832402
75.632634	802.467966	0.365345	0.014629	1.841578
76.413347	813.491940	0.370350	0.014480	1.850583
77.055392	824.593074	0.375354	0.014357	1.859566
77.805361	835.564494	0.380359	0.014213	1.868434
79.050254	846.574772	0.385364	0.013977	1.877425
79.905239	857.644269	0.390369	0.013814	1.886313
81.094243	868.640432	0.395373	0.013588	1.895192
81.714575	879.765429	0.400378	0.013469	1.903976
82.550931	890.743561	0.405383	0.013309	1.912664
83.303736	901.831239	0.410387	0.013165	1.921374
84.252213	912.817646	0.415392	0.012985	1.930019
84.912573	923.889868	0.420397	0.012858	1.938614
85.708180	934.895397	0.425402	0.012706	1.947157
86.186523	945.985043	0.430406	0.012613	1.955642
87.066715	956.944734	0.435411	0.012446	1.964097
87.731408	968.042848	0.440416	0.012318	1.972563
88.663405	979.017709	0.445421	0.012140	1.980969
89.386054	990.070509	0.450425	0.012002	1.989344
90.463812	1001.074472	0.455430	0.011797	1.997738
90.963484	1012.174872	0.460435	0.011701	2.006021
92.160752	1023.124091	0.465439	0.011473	2.014334
92.892297	1034.227649	0.470444	0.011333	2.022609
93.661126	1045.253304	0.475449	0.011186	2.030802
94.277053	1056.289019	0.480454	0.011068	2.038932
94.992867	1067.314918	0.485458	0.010931	2.047046
95.904735	1078.325595	0.490463	0.010757	2.055166
96.594206	1089.376736	0.495468	0.010625	2.063227
97.420873	1100.402680	0.500472	0.010467	2.071273
98.009123	1111.470072	0.505477	0.010354	2.079258
98.506743	1122.490492	0.510482	0.010258	2.087158
99.198005	1133.519815	0.515487	0.010125	2.095081
99.913434	1144.507865	0.520491	0.009989	2.102950
100.724087	1155.543201	0.525496	0.009834	2.110845
101.347506	1166.589537	0.530501	0.009714	2.118674
101.922683	1177.644435	0.535506	0.009603	2.126469
102.645655	1188.649082	0.540510	0.009465	2.134234
103.429077	1199.664181	0.545515	0.009315	2.141993
104.117215	1210.703926	0.550520	0.009183	2.149718
104.876094	1221.727473	0.555524	0.009038	2.157420
105.256998	1232.793379	0.560529	0.008964	2.165037
106.218766	1243.777634	0.565534	0.008781	2.172704
106.806716	1254.815374	0.570539	0.008668	2.180295
107.436111	1265.847291	0.575543	0.008547	2.187864
108.213188	1276.883162	0.580548	0.008398	2.195444
108.936606	1287.884966	0.585553	0.008260	2.202962
109.432132	1298.960638	0.590558	0.008164	2.210453
110.010492	1309.962104	0.595562	0.008053	2.217887
110.705394	1320.966321	0.600567	0.007920	2.225324
111.413053	1332.020871	0.605572	0.007784	2.232772
111.830330	1343.072390	0.610576	0.007703	2.240128
112.440475	1354.071448	0.615581	0.007586	2.247469
112.944362	1365.122303	0.620586	0.007489	2.254796
113.784053	1376.087662	0.625591	0.007329	2.262117
114.384842	1387.155205	0.630595	0.007213	2.269428
115.109487	1398.148667	0.635600	0.007074	2.276694
115.628581	1409.225303	0.640605	0.006974	2.283946
116.119798	1420.256575	0.645610	0.006879	2.291140
116.560707	1431.236146	0.650614	0.006794	2.298268
117.375151	1442.267589	0.655619	0.006638	2.305486
117.993385	1453.290484	0.660624	0.006520	2.312634
118.516998	1464.334150	0.665628	0.006419	2.319753
118.956178	1475.375671	0.670633	0.006333	2.326831
119.883076	1486.340895	0.675638	0.006157	2.333941
120.528862	1497.387575	0.680643	0.006033	2.341022
121.268281	1508.419005	0.685647	0.005891	2.348091
121.903549	1519.433314	0.690652	0.005769	2.355106
122.776859	1530.453391	0.695657	0.005603	2.362153
123.178294	1541.514304	0.700661	0.005525	2.369107
123.921128	1552.519562	0.705666	0.005383	2.376077
124.507753	1563.539489	0.710671	0.005270	2.383002
125.078265	1574.585525	0.715676	0.005160	2.389920
125.540490	1585.603142	0.720680	0.005071	2.396779
125.992675	1596.649706	0.725685	0.004983	2.403634
126.349553	1607.669729	0.730690	0.004913	2.410434
127.033973	1618.643314	0.735695	0.004782	2.417251
127.767574	1629.676041	0.740699	0.004642	2.424095
128.775089	1640.665933	0.745704	0.004450	2.430948
129.122387	1651.767253	0.750709	0.004382	2.437718
129.666239	1662.766788	0.755713	0.004277	2.444446
130.271459	1673.779193	0.760718	0.004161	2.451176
130.947442	1684.800162	0.765723	0.004032	2.457906
131.481744	1695.821123	0.770728	0.003929	2.464590
132.121712	1706.846456	0.775732	0.003806	2.471278
132.646174	1717.884197	0.780737	0.003705	2.477934
133.500283	1728.871400	0.785742	0.003542	2.484605
133.915461	1739.952053	0.790747	0.003461	2.491228
134.525167	1750.939044	0.795751	0.003344	2.497816
135.064207	1761.967450	0.800756	0.003240	2.504398
135.665542	1772.990757	0.805761	0.003124	2.510970
136.269476	1784.000981	0.810765	0.003008	2.517519
137.150400	1795.015887	0.815770	0.002840	2.524105
137.637591	1806.064618	0.820775	0.002746	2.530619
138.171262	1817.078150	0.825780	0.002643	2.537104
138.742213	1828.101280	0.830784	0.002533	2.543586
139.269185	1839.126355	0.835789	0.002432	2.550044
139.795185	1850.136430	0.840794	0.002330	2.556476
140.571923	1861.165236	0.845799	0.002182	2.562949
140.911547	1872.213080	0.850803	0.002115	2.569336
141.437741	1883.271288	0.855808	0.002014	2.575747
141.845229	1894.246678	0.860813	0.001935	2.582074
142.432239	1905.251027	0.865817	0.001822	2.588433
142.941139	1916.271648	0.870822	0.001724	2.594773
143.384169	1927.310635	0.875827	0.001638	2.601094
143.976092	1938.308058	0.880832	0.001524	2.607404
144.642232	1949.338899	0.885836	0.001396	2.613731
145.231413	1960.348478	0.890841	0.001283	2.620016
145.853590	1971.370570	0.895846	0.001164	2.626299
146.280098	1982.418289	0.900850	0.001081	2.632547
147.010838	1993.397207	0.905855	0.000941	2.638795
147.150237	2004.480231	0.910860	0.000912	2.644981
147.813407	2015.456465	0.915865	0.000785	2.651186
148.303153	2026.499774	0.920869	0.000690	2.657383
149.077947	2037.477234	0.925874	0.000542	2.663579
149.626376	2048.529318	0.930879	0.000437	2.669761
150.029234	2059.514563	0.935884	0.000358	2.675868
150.570661	2070.553354	0.940888	0.000254	2.682013
151.255167	2081.553446	0.945893	0.000123	2.688149
151.663936	2092.592337	0.950898	0.000043	2.694243
152.039930	2103.616027	0.955902	-0.000030	2.700310
152.538345	2114.620588	0.960907	-0.000126	2.706373
153.196563	2125.662914	0.965912	-0.000252	2.712471
153.570664	2136.678324	0.970917	-0.000325	2.718492
154.195944	2147.663862	0.975921	-0.000445	2.724525
154.610362	2158.726973	0.980926	-0.000526	2.730552
155.076396	2169.734251	0.985931	-0.000616	2.736544
155.264897	2180.775870	0.990936	-0.000654	2.742494
155.859157	2191.758212	0.995940	-0.000768	2.748468
156.443535	2202.772400	1.000945	-0.000881	2.754443
157.223005	2213.787703	1.005950	-0.001030	2.760439
157.663853	2224.842742	1.010954	-0.001115	2.766387
157.921850	2235.895007	1.015959	-0.001166	2.772289
158.397897	2246.832747	1.020964	-0.001258	2.778155
159.019516	2257.876630	1.025969	-0.001378	2.784088
159.624822	2268.895953	1.030973	-0.001494	2.789993
160.209403	2279.933346	1.035978	-0.001607	2.795891
160.402501	2290.980785	1.040983	-0.001645	2.801718
161.065982	2301.960719	1.045988	-0.001773	2.807574
161.399636	2312.998661	1.050992	-0.001838	2.813394
161.944011	2323.983679	1.055997	-0.001943	2.819209
162.582695	2335.011459	1.061002	-0.002065	2.825049
163.324060	2346.038857	1.066006	-0.002207	2.830893
163.554719	2357.077311	1.071011	-0.002253	2.836648
164.104473	2368.078476	1.076016	-0.002359	2.842424
164.489975	2379.102553	1.081021	-0.002434	2.848174
165.340046	2390.086087	1.086025	-0.002596	2.853964
165.596153	2401.169701	1.091030	-0.002647	2.859700
166.101178	2412.153482	1.096035	-0.002745	2.865413
166.517215	2423.193898	1.101039	-0.002826	2.871129
167.330536	2434.162781	1.106044	-0.002981	2.876860
167.859885	2445.216008	1.111049	-0.003083	2.882577
168.415196	2456.211973	1.116054	-0.003190	2.888258
168.607454	2467.312044	1.121058	-0.003229	2.893923
169.163369	2478.261623	1.126063	-0.003336	2.899558
169.439033	2489.310296	1.131068	-0.003390	2.905189
169.987244	2500.296139	1.136073	-0.003496	2.910819
170.561731	2511.323780	1.141077	-0.003606	2.916463
171.110712	2522.337117	1.146082	-0.003712	2.922085
171.472655	2533.387625	1.151087	-0.003783	2.927685
171.950727	2544.376918	1.156091	-0.003875	2.933263
172.333470	2555.406075	1.161096	-0.003950	2.938834
172.982386	2566.402589	1.166101	-0.004074	2.944420
173.530557	2577.433775	1.171106	-0.004180	2.949996
173.971209	2588.458125	1.176110	-0.004265	2.955542
174.381513	2599.491480	1.181115	-0.004345	2.961078
175.132662	2610.472344	1.186120	-0.004489	2.966628
175.705480	2621.503957	1.191125	-0.004599	2.972167
176.333898	2632.517819	1.196129	-0.004719	2.977694
176.570727	2643.574713	1.201134	-0.004767	2.983173
176.889732	2654.575906	1.206139	-0.004829	2.988628
177.265371	2665.597678	1.211143	-0.004902	2.994091
177.927357	2676.587556	1.216148	-0.005029	2.999570
178.523912	2687.606466	1.221153	-0.005144	3.005044
179.285303	2698.632441	1.226158	-0.005290	3.010535
179.583186	2709.677494	1.231162	-0.005348	3.015958
179.950391	2720.680174	1.236167	-0.005420	3.021360
180.358292	2731.697838	1.241172	-0.005499	3.026766
181.076998	2742.694156	1.246177	-0.005637	3.032197
181.703596	2753.717877	1.251181	-0.005757	3.037617
182.136858	2764.751814	1.256186	-0.005841	3.043005
182.492487	2775.792660	1.261191	-0.005910	3.048376
182.876472	2786.783833	1.266195	-0.005985	3.053717
183.192630	2797.810340	1.271200	-0.006047	3.059056
183.817586	2808.802297	1.276205	-0.006167	3.064413
184.102356	2819.857930	1.281210	-0.006223	3.069743
184.572079	2830.855205	1.286214	-0.006314	3.075061
184.648803	2841.927805	1.291219	-0.006331	3.080351
185.051958	2852.862259	1.296224	-0.006410	3.085612
185.654536	2863.911907	1.301228	-0.006526	3.090946
186.161809	2874.913998	1.306233	-0.006624	3.096236
186.488585	2885.943981	1.311238	-0.006688	3.101504
186.866940	2896.971215	1.316243	-0.006761	3.106769
187.153252	2907.981174	1.321247	-0.006818	3.112004
187.657342	2919.008747	1.326252	-0.006915	3.117268
188.062044	2930.007723	1.331257	-0.006994	3.122497
188.652454	2941.026128	1.336262	-0.007107	3.127751
189.147541	2952.047735	1.341266	-0.007203	3.132985
189.490792	2963.083507	1.346271	-0.007270	3.138195
189.966465	2974.060978	1.351276	-0.007362	3.143388
190.375162	2985.137728	1.356280	-0.007441	3.148609
190.882431	2996.095687	1.361285	-0.007539	3.153780
191.352086	3007.134942	1.366290	-0.007630	3.158975
191.512568	3018.189018	1.371295	-0.007663	3.164126
191.963599	3029.166266	1.376299	-0.007750	3.169272
192.230005	3040.204240	1.381304	-0.007803	3.174413
192.903754	3051.167990	1.386309	-0.007932	3.179566
193.632939	3062.224909	1.391314	-0.008072	3.184761
193.837452	3073.260547	1.396318	-0.008113	3.189868
194.200186	3084.275558	1.401323	-0.008184	3.194977
194.682080	3095.261708	1.406328	-0.008277	3.200081
195.236706	3106.299369	1.411332	-0.008384	3.205211
195.732353	3117.312942	1.416337	-0.008479	3.210313
195.943664	3128.321509	1.421342	-0.008522	3.215366
196.497527	3139.326642	1.426347	-0.008628	3.220456
196.904418	3150.345556	1.431351	-0.008707	3.225524
197.406289	3161.395364	1.436356	-0.008804	3.230611
197.683928	3172.399694	1.441361	-0.008859	3.235640
198.288411	3183.397588	1.446366	-0.008975	3.240700
198.456374	3194.441566	1.451370	-0.009010	3.245716
198.727763	3205.448835	1.456375	-0.009063	3.250722
199.086621	3216.470389	1.461380	-0.009133	3.255737
199.656272	3227.459897	1.466384	-0.009243	3.260758
200.174807	3238.504523	1.471389	-0.009343	3.265789
200.714891	3249.504835	1.476394	-0.009447	3.270795
200.979076	3260.547125	1.481399	-0.009499	3.275776
201.293673	3271.536905	1.486403	-0.009561	3.280733
201.729756	3282.580264	1.491408	-0.009646	3.285721
202.121459	3293.574355	1.496413	-0.009722	3.290675
202.554040	3304.597605	1.501417	-0.009806	3.295639
202.824750	3315.637640	1.506422	-0.009859	3.300582
203.133442	3326.632321	1.511427	-0.009920	3.305503
203.553553	3337.651491	1.516432	-0.010001	3.310441
203.962001	3348.653440	1.521436	-0.010081	3.315362
204.535412	3359.655036	1.526441	-0.010191	3.320297
204.787677	3370.728477	1.531446	-0.010241	3.325216
205.185014	3381.706601	1.536451	-0.010318	3.330103
205.722562	3392.731883	1.541455	-0.010422	3.335022
206.123934	3403.739920	1.546460	-0.010500	3.339908
206.686053	3414.760409	1.551465	-0.010608	3.344813
206.914682	3425.798239	1.556469	-0.010654	3.349677
207.171623	3436.818652	1.561474	-0.010705	3.354529
207.606829	3447.810119	1.566479	-0.010789	3.359384
208.030911	3458.838947	1.571484	-0.010872	3.364246
208.658528	3469.842054	1.576488	-0.010992	3.369115
209.047191	3480.859050	1.581493	-0.011068	3.373954
209.308327	3491.874747	1.586498	-0.011119	3.378770
209.768268	3502.914154	1.591503	-0.011208	3.383613
209.998341	3513.902090	1.596507	-0.011254	3.388399
210.234349	3524.943143	1.601512	-0.011301	3.393202
210.708180	3535.930067	1.606517	-0.011393	3.398003
211.151222	3546.972733	1.611521	-0.011479	3.402818
211.407575	3557.982617	1.616526	-0.011530	3.407589
211.983514	3568.991907	1.621531	-0.011641	3.412392
212.489933	3580.003119	1.626536	-0.011738	3.417180
213.119187	3591.006353	1.631540	-0.011859	3.421973
213.666885	3602.051165	1.636545	-0.011965	3.426767
213.942673	3613.049952	1.641550	-0.012019	3.431502
214.231903	3624.101452	1.646555	-0.012076	3.436254
214.589339	3635.092511	1.651559	-0.012146	3.440983
214.988504	3646.105844	1.656564	-0.012223	3.445719
215.311050	3657.141898	1.661569	-0.012287	3.450449
215.609233	3668.127278	1.666573	-0.012345	3.455148
215.811963	3679.184399	1.671578	-0.012386	3.459860
216.011208	3690.178062	1.676583	-0.012426	3.464539
216.608861	3701.192517	1.681588	-0.012541	3.469266
217.031319	3712.186328	1.686592	-0.012623	3.473957
217.587268	3723.223235	1.691597	-0.012730	3.478676
218.000526	3734.234637	1.696602	-0.012810	3.483360
218.367692	3745.259755	1.701606	-0.012882	3.488039
218.809284	3756.238760	1.706611	-0.012968	3.492701
219.442005	3767.284173	1.711616	-0.013089	3.497406
219.803795	3778.280259	1.716621	-0.013160	3.502053
220.264528	3789.347967	1.721625	-0.013249	3.506736
220.401086	3800.318003	1.726630	-0.013277	3.511334
220.919616	3811.352150	1.731635	-0.013377	3.515996
221.307437	3822.361963	1.736640	-0.013453	3.520627
221.601915	3833.416479	1.741644	-0.013511	3.525259
221.941596	3844.396866	1.746649	-0.013577	3.529860
222.171019	3855.424023	1.751654	-0.013623	3.534462
222.694726	3866.416277	1.756658	-0.013724	3.539076
223.082831	3877.452474	1.761663	-0.013800	3.543688
223.509247	3888.465851	1.766668	-0.013882	3.548287
224.055219	3899.469231	1.771673	-0.013987	3.552891
224.435614	3910.472141	1.776677	-0.014062	3.557469
224.808141	3921.518251	1.781682	-0.014134	3.562058
225.168685	3932.522914	1.786687	-0.014205	3.566623
225.515846	3943.533431	1.791692	-0.014272	3.571183
225.925339	3954.540852	1.796696	-0.014352	3.575743
226.333128	3965.589086	1.801701	-0.014431	3.580313
226.638141	3976.594568	1.806706	-0.014491	3.584849
227.017331	3987.614305	1.811710	-0.014565	3.589393
227.507277	3998.588899	1.816715	-0.014660	3.593924
227.989933	4009.645662	1.821720	-0.014753	3.598483
228.242811	4020.669163	1.826725	-0.014803	3.602997
228.778948	4031.663548	1.831729	-0.014907	3.607524
229.187088	4042.687051	1.836734	-0.014986	3.612043
229.425121	4053.695980	1.841739	-0.015033	3.616533
229.806173	4064.703202	1.846744	-0.015107	3.621031
230.251011	4075.734573	1.851748	-0.015194	3.625541
230.692661	4086.719058	1.856753	-0.015279	3.630025
231.284367	4097.786990	1.861758	-0.015393	3.634554
231.695857	4108.808365	1.866762	-0.015473	3.639038
232.053221	4119.854119	1.871767	-0.015543	3.643522
232.510564	4130.855560	1.876772	-0.015631	3.647992
232.566716	4141.891807	1.881777	-0.015645	3.652428
232.933632	4152.860498	1.886781	-0.015716	3.656865
233.258502	4163.913959	1.891786	-0.015780	3.661326
233.588633	4174.910299	1.896791	-0.015844	3.665759
233.952443	4185.937212	1.901795	-0.015915	3.670202
234.251179	4196.941629	1.906800	-0.015974	3.674624
234.822898	4207.957078	1.911805	-0.016084	3.679073
235.272961	4218.974238	1.916810	-0.016171	3.683505
235.729637	4230.017483	1.921814	-0.016260	3.687943
235.967170	4240.991585	1.926819	-0.016307	3.692325
236.506527	4252.023132	1.931824	-0.016411	3.696756
236.887924	4263.015676	1.936829	-0.016485	3.701149
237.145480	4274.074362	1.941833	-0.016536	3.705551
237.421753	4285.055395	1.946838	-0.016591	3.709919
237.682993	4296.095461	1.951843	-0.016643	3.714303
238.172563	4307.079302	1.956847	-0.016737	3.718683
238.515761	4318.147752	1.961852	-0.016804	3.723077
238.833635	4329.129696	1.966857	-0.016867	3.727428
239.344882	4340.136809	1.971862	-0.016965	3.731804
239.424384	4351.170012	1.976866	-0.016983	3.736141
239.801021	4362.179345	1.981871	-0.017057	3.740494
240.096317	4373.199638	1.986876	-0.017115	3.744837
