Wed Nov 23 18:28:15 2022

Number of Points = 2200
Depth (nm)	Load (µN)	Time (s)	Depth (V)	Load (V)
-2.109508	0.996952	0.000000	-0.001930	1.062833
0.000000	7.648865	0.005005	-0.002327	1.073049
2.022978	17.006396	0.010009	-0.002709	1.086785
3.589612	27.823090	0.015014	-0.003006	1.102069
4.668829	39.009545	0.020019	-0.003211	1.117393
5.809601	50.109415	0.025024	-0.003428	1.132427
6.728750	61.295926	0.030028	-0.003603	1.147269
7.639670	72.418285	0.035033	-0.003777	1.161835
8.390985	83.569130	0.040038	-0.003920	1.176184
9.083000	94.695183	0.045043	-0.004053	1.190301
9.614210	105.834548	0.050047	-0.004156	1.204197
10.315681	116.948936	0.055052	-0.004290	1.217978
15.313550	126.984606	0.060057	-0.005230	1.232193
19.669153	138.337508	0.065061	-0.006050	1.247516
20.974569	149.976958	0.070066	-0.006298	1.261688
22.223598	161.160396	0.075071	-0.006535	1.275153
23.340006	172.313013	0.080076	-0.006747	1.288387
24.612501	183.415232	0.085080	-0.006989	1.301492
25.912158	194.468672	0.090085	-0.007236	1.314422
26.829059	205.636975	0.095090	-0.007410	1.327199
27.524445	216.737941	0.100094	-0.007544	1.339691
28.682136	227.721245	0.105099	-0.007764	1.352123
29.902360	238.802968	0.110104	-0.007995	1.364570
30.875414	249.927542	0.115109	-0.008181	1.376854
31.793904	261.007713	0.120113	-0.008356	1.388961
32.806582	272.057195	0.125118	-0.008548	1.400967
33.822523	283.127366	0.130123	-0.008742	1.412892
34.616450	294.265562	0.135128	-0.008894	1.424705
35.548456	305.265900	0.140132	-0.009071	1.436330
36.661674	316.327117	0.145137	-0.009283	1.447989
37.360477	327.470788	0.150142	-0.009417	1.459487
38.110379	338.512835	0.155146	-0.009560	1.470812
38.996617	349.542101	0.160151	-0.009729	1.482085
40.135987	360.579569	0.165156	-0.009946	1.493371
41.216923	371.640195	0.170161	-0.010151	1.504573
41.904991	382.767916	0.175165	-0.010283	1.515621
42.940544	393.755614	0.180170	-0.010480	1.526573
43.753982	404.885057	0.185175	-0.010636	1.537506
44.547502	415.913428	0.190180	-0.010787	1.548259
45.684904	426.932196	0.195184	-0.011003	1.559044
46.471723	438.022499	0.200189	-0.011154	1.569704
47.437542	449.086410	0.205194	-0.011338	1.580326
47.912160	460.176824	0.210198	-0.011429	1.590740
48.753190	471.203403	0.215203	-0.011590	1.601147
49.469432	482.245036	0.220208	-0.011727	1.611460
50.526635	493.261637	0.225213	-0.011928	1.621793
51.366470	504.331410	0.230217	-0.012089	1.632039
52.341301	515.367742	0.235222	-0.012274	1.642234
52.841917	526.472707	0.240227	-0.012371	1.652277
53.906188	537.442718	0.245232	-0.012573	1.662316
54.718136	548.521051	0.250236	-0.012728	1.672311
55.711979	559.566082	0.255241	-0.012918	1.682273
56.345372	570.614464	0.260246	-0.013039	1.692069
57.108594	581.703738	0.265250	-0.013185	1.701882
57.852974	592.709258	0.270255	-0.013328	1.711562
58.522283	603.786041	0.275260	-0.013456	1.721225
59.113853	614.819443	0.280265	-0.013570	1.730773
59.998899	625.828903	0.285269	-0.013738	1.740336
60.892452	636.853732	0.290274	-0.013909	1.749861
62.202704	647.867483	0.295279	-0.014157	1.759448
62.744342	659.012296	0.300283	-0.014262	1.768867
63.701266	669.971365	0.305288	-0.014444	1.778202
64.476781	681.052855	0.310293	-0.014592	1.787537
65.271231	692.088665	0.315298	-0.014744	1.796790
65.967976	703.153777	0.320302	-0.014878	1.805992
66.803708	714.161470	0.325307	-0.015037	1.815140
67.328296	725.239531	0.330312	-0.015138	1.824211
68.087417	736.264053	0.335317	-0.015283	1.833259
68.736641	747.298340	0.340321	-0.015408	1.842240
69.357090	758.359840	0.345326	-0.015527	1.851190
69.927097	769.401447	0.350331	-0.015637	1.860068
70.641930	780.393307	0.355335	-0.015774	1.868904
71.078654	791.480364	0.360340	-0.015858	1.877696
71.782406	802.501537	0.365345	-0.015993	1.886469
72.365597	813.530768	0.370350	-0.016105	1.895174
73.111341	824.531820	0.375354	-0.016248	1.903861
73.700639	835.617343	0.380359	-0.016361	1.912531
74.357372	846.631033	0.385364	-0.016487	1.921125
75.004848	857.675285	0.390369	-0.016612	1.929701
75.804263	868.700743	0.395373	-0.016764	1.938265
76.466106	879.703014	0.400378	-0.016891	1.946737
77.266670	890.744795	0.405383	-0.017044	1.955238
77.965904	901.801089	0.410387	-0.017178	1.963686
78.567888	912.832724	0.415392	-0.017294	1.972054
79.157125	923.861205	0.420397	-0.017407	1.980382
79.802952	934.908740	0.425402	-0.017531	1.988702
80.172847	945.964699	0.430406	-0.017603	1.996924
80.818324	956.967256	0.435411	-0.017727	2.005143
81.333613	968.013869	0.440416	-0.017826	2.013327
82.381506	978.974550	0.445421	-0.018026	2.021548
83.029578	990.049383	0.450425	-0.018150	2.029719
83.698875	1001.105995	0.455430	-0.018278	2.037849
84.134117	1012.135079	0.460435	-0.018363	2.045869
85.127382	1023.120752	0.465439	-0.018552	2.053963
85.802903	1034.189033	0.470444	-0.018681	2.062006
86.391251	1045.220943	0.475449	-0.018795	2.069971
87.100124	1056.261978	0.480454	-0.018930	2.077941
87.832867	1067.269732	0.485458	-0.019070	2.085862
88.154200	1078.368672	0.490463	-0.019134	2.093718
88.598133	1089.361566	0.495468	-0.019220	2.101500
89.152006	1100.376169	0.500472	-0.019326	2.109295
89.892622	1111.396802	0.505477	-0.019468	2.117108
90.474610	1122.426730	0.510482	-0.019580	2.124862
91.478331	1133.423698	0.515487	-0.019771	2.132663
91.940528	1144.504652	0.520491	-0.019860	2.140367
92.710352	1155.490746	0.525496	-0.020008	2.148050
93.326875	1166.552514	0.530501	-0.020126	2.155721
93.824592	1177.607872	0.535506	-0.020222	2.163333
94.270426	1188.627614	0.540510	-0.020308	2.170882
94.856767	1199.639059	0.545515	-0.020421	2.178432
95.551142	1210.638844	0.550520	-0.020554	2.185971
96.278939	1221.681308	0.555524	-0.020694	2.193521
96.556832	1232.749340	0.560529	-0.020748	2.200960
97.290837	1243.737288	0.565534	-0.020889	2.208423
97.645895	1254.801200	0.570539	-0.020958	2.215827
98.621373	1265.741353	0.575543	-0.021144	2.223261
99.238730	1276.815847	0.580548	-0.021263	2.230680
99.852108	1287.872363	0.585553	-0.021380	2.238061
99.950971	1298.930001	0.590558	-0.021402	2.245306
100.819150	1309.866428	0.595562	-0.021567	2.252616
101.372049	1320.949725	0.600567	-0.021674	2.259930
102.024084	1331.956956	0.605572	-0.021799	2.267191
102.708691	1342.966176	0.610576	-0.021930	2.274438
103.213516	1354.003817	0.615581	-0.022027	2.281641
103.575919	1365.067354	0.620586	-0.022098	2.288807
104.116179	1376.074344	0.625591	-0.022202	2.295952
104.470469	1387.090304	0.630595	-0.022272	2.303042
105.318989	1398.080539	0.635600	-0.022433	2.310197
105.782309	1409.147576	0.640605	-0.022523	2.317298
106.448851	1420.164473	0.645610	-0.022651	2.324388
106.916717	1431.184832	0.650614	-0.022741	2.331416
107.409423	1442.235460	0.655619	-0.022837	2.338448
107.831591	1453.231984	0.660624	-0.022919	2.345410
108.549112	1464.260159	0.665628	-0.023056	2.352432
109.055522	1475.278289	0.670633	-0.023154	2.359383
109.623885	1486.305209	0.675638	-0.023263	2.366331
110.070137	1497.362991	0.680643	-0.023350	2.373253
110.531746	1508.367232	0.685647	-0.023439	2.380125
110.865813	1519.391316	0.690652	-0.023504	2.386964
111.702999	1530.400047	0.695657	-0.023664	2.393874
112.088094	1541.436781	0.700661	-0.023739	2.400691
112.692831	1552.460752	0.705666	-0.023855	2.407525
113.029011	1563.508381	0.710671	-0.023921	2.414300
113.379796	1574.511257	0.715676	-0.023990	2.421031
113.803438	1585.523997	0.720680	-0.024072	2.427765
114.398072	1596.550363	0.725685	-0.024186	2.434521
114.844601	1607.585406	0.730690	-0.024273	2.441234
115.381452	1618.595076	0.735695	-0.024376	2.447932
116.019647	1629.619607	0.740699	-0.024499	2.454640
116.496409	1640.636603	0.745704	-0.024591	2.461293
117.111058	1651.644937	0.750709	-0.024709	2.467950
117.760476	1662.665449	0.755713	-0.024833	2.474602
118.291354	1673.720243	0.760718	-0.024936	2.481234
118.995971	1684.715446	0.765723	-0.025071	2.487846
119.272019	1695.812654	0.770728	-0.025125	2.494419
119.782797	1706.761687	0.775732	-0.025224	2.500932
120.157227	1717.822753	0.780737	-0.025297	2.507468
120.662639	1728.829202	0.785742	-0.025394	2.513979
121.151701	1739.833920	0.790747	-0.025489	2.520469
121.586713	1750.888703	0.795751	-0.025573	2.526962
122.112373	1761.917563	0.800756	-0.025675	2.533439
122.336862	1772.920978	0.805761	-0.025719	2.539829
122.818042	1783.938839	0.810765	-0.025812	2.546259
123.413352	1794.965311	0.815770	-0.025927	2.552699
123.830755	1805.967778	0.820775	-0.026008	2.559076
124.360509	1817.007263	0.825780	-0.026110	2.565478
124.685348	1828.040016	0.830784	-0.026174	2.571823
125.116111	1839.133266	0.835789	-0.026257	2.578206
125.584808	1850.046134	0.840794	-0.026348	2.584478
125.920420	1861.109820	0.845799	-0.026414	2.590795
126.231129	1872.133050	0.850803	-0.026475	2.597070
126.804640	1883.120329	0.855808	-0.026585	2.603357
127.156023	1894.152840	0.860813	-0.026654	2.609613
127.523758	1905.184760	0.865817	-0.026725	2.615858
127.872752	1916.214844	0.870822	-0.026794	2.622083
128.151815	1927.233925	0.875827	-0.026849	2.628274
128.606659	1938.212655	0.880832	-0.026937	2.634460
128.983465	1949.286322	0.885836	-0.027010	2.640670
129.365897	1960.282554	0.890841	-0.027085	2.646823
129.798183	1971.315078	0.895846	-0.027169	2.652991
130.652739	1982.281429	0.900850	-0.027332	2.659181
131.402951	1993.309860	0.905855	-0.027475	2.665373
131.874807	2004.369962	0.910860	-0.027566	2.671519
132.307706	2015.390795	0.915865	-0.027650	2.677623
132.920041	2026.380556	0.920869	-0.027768	2.683727
133.432321	2037.432371	0.925874	-0.027867	2.689833
133.977681	2048.406324	0.930879	-0.027972	2.695889
134.726202	2059.415916	0.935884	-0.028115	2.701985
134.985663	2070.494038	0.940888	-0.028167	2.708021
135.392671	2081.493970	0.945893	-0.028246	2.714026
135.625633	2092.518434	0.950898	-0.028292	2.720002
135.924175	2103.532276	0.955902	-0.028351	2.725969
136.189844	2114.574555	0.960907	-0.028403	2.731934
136.914749	2125.513499	0.965912	-0.028542	2.737907
137.393472	2136.580818	0.970917	-0.028635	2.743894
138.127180	2147.595954	0.975921	-0.028775	2.749882
138.413358	2158.621462	0.980926	-0.028832	2.755789
138.766009	2169.657859	0.985931	-0.028900	2.761699
139.067186	2180.684225	0.990936	-0.028960	2.767584
139.530072	2191.676253	0.995940	-0.029049	2.773464
139.891349	2202.706681	1.000945	-0.029120	2.779334
140.289214	2213.719760	1.005950	-0.029197	2.785190
140.665405	2224.766835	1.010954	-0.029271	2.791047
141.068076	2235.752937	1.015959	-0.029349	2.796864
141.481266	2246.786060	1.020964	-0.029429	2.802695
141.789293	2257.812986	1.025969	-0.029490	2.808494
142.204554	2268.823208	1.030973	-0.029570	2.814290
142.815712	2279.817585	1.035978	-0.029688	2.820096
143.244383	2290.861121	1.040983	-0.029771	2.825887
143.678324	2301.880267	1.045988	-0.029855	2.831654
143.690043	2312.939661	1.050992	-0.029860	2.837362
144.235052	2323.894283	1.055997	-0.029965	2.843090
144.767257	2334.927902	1.061002	-0.030067	2.848845
145.465545	2345.932064	1.066006	-0.030201	2.854599
145.846820	2356.978135	1.071011	-0.030275	2.860313
146.308879	2367.995592	1.076016	-0.030365	2.866014
146.682493	2379.025331	1.081021	-0.030438	2.871695
147.184238	2390.032484	1.086025	-0.030535	2.877374
147.346734	2401.057750	1.091030	-0.030568	2.882997
147.899293	2412.063484	1.096035	-0.030674	2.888661
148.076965	2423.142644	1.101039	-0.030710	2.894292
148.479869	2434.099773	1.106044	-0.030789	2.899885
148.576055	2445.157406	1.111049	-0.030809	2.905471
148.977659	2456.154345	1.116054	-0.030888	2.911063
149.352001	2467.164405	1.121058	-0.030960	2.916646
149.952047	2478.157766	1.126063	-0.031076	2.922244
150.318606	2489.204640	1.131068	-0.031147	2.927823
150.896017	2500.210734	1.136073	-0.031258	2.933402
151.394433	2511.219175	1.141077	-0.031355	2.938961
151.900992	2522.252847	1.146082	-0.031452	2.944522
152.125211	2533.302935	1.151087	-0.031497	2.950038
152.384260	2544.299046	1.156091	-0.031549	2.955522
152.901348	2555.302849	1.161096	-0.031648	2.961039
153.558570	2566.329704	1.166101	-0.031774	2.966577
153.757037	2577.371912	1.171106	-0.031814	2.972045
154.150367	2588.344682	1.176110	-0.031891	2.977497
154.686750	2599.384017	1.181115	-0.031994	2.982992
154.981920	2610.420679	1.186120	-0.032052	2.988441
155.141692	2621.441884	1.191125	-0.032085	2.993852
155.671070	2632.440535	1.196129	-0.032187	2.999296
156.156709	2643.448534	1.201134	-0.032281	3.004729
156.532765	2654.489343	1.206139	-0.032354	3.010152
156.942081	2665.492857	1.211143	-0.032434	3.015551
157.551944	2676.493856	1.216148	-0.032551	3.020969
157.745737	2687.551341	1.221153	-0.032590	3.026344
157.978068	2698.562147	1.226158	-0.032636	3.031692
158.600609	2709.539587	1.231162	-0.032756	3.037071
159.164852	2720.576676	1.236167	-0.032864	3.042460
159.638698	2731.606259	1.241172	-0.032956	3.047824
159.891845	2742.642675	1.246177	-0.033006	3.053149
160.222902	2753.651933	1.251181	-0.033071	3.058463
160.589429	2764.643983	1.256186	-0.033143	3.063765
160.937459	2775.695053	1.261191	-0.033211	3.069083
161.222710	2786.693709	1.266195	-0.033267	3.074358
161.459630	2797.733795	1.271200	-0.033314	3.079637
161.768026	2808.726446	1.276205	-0.033375	3.084894
162.032540	2819.777573	1.281210	-0.033427	3.090164
162.277981	2830.762929	1.286214	-0.033476	3.095390
162.659952	2841.792997	1.291219	-0.033550	3.100648
162.898982	2852.800156	1.296224	-0.033598	3.105867
163.321676	2863.811789	1.301228	-0.033680	3.111104
163.518211	2874.850496	1.306233	-0.033720	3.116314
163.797111	2885.854312	1.311238	-0.033775	3.121510
164.101834	2896.892541	1.316243	-0.033835	3.126717
164.474121	2907.893530	1.321247	-0.033907	3.131907
164.832493	2918.889777	1.326252	-0.033977	3.137084
165.082075	2929.937813	1.331257	-0.034027	3.142262
165.523447	2940.931353	1.336262	-0.034112	3.147432
166.061358	2951.954914	1.341266	-0.034216	3.152620
166.484116	2962.967473	1.346271	-0.034298	3.157779
166.919368	2973.988760	1.351276	-0.034382	3.162936
167.315711	2985.012778	1.356280	-0.034459	3.168079
167.811324	2996.037039	1.361285	-0.034555	3.173228
167.961346	3007.058849	1.366290	-0.034586	3.178321
168.216215	3018.070034	1.371295	-0.034637	3.183415
168.604221	3029.088350	1.376299	-0.034712	3.188522
169.037571	3040.092469	1.381304	-0.034796	3.193620
169.341949	3051.126073	1.386309	-0.034856	3.198706
169.622120	3062.132561	1.391314	-0.034911	3.203768
170.038676	3073.156333	1.396318	-0.034992	3.208848
170.176239	3084.162680	1.401323	-0.035021	3.213875
170.671943	3095.177809	1.406328	-0.035116	3.218946
170.870260	3106.214709	1.411332	-0.035156	3.223979
171.115699	3117.220987	1.416337	-0.035205	3.228997
171.317658	3128.246803	1.421342	-0.035246	3.234010
171.781152	3139.240953	1.426347	-0.035335	3.239035
172.109160	3150.275669	1.431351	-0.035400	3.244052
172.607609	3161.278847	1.436356	-0.035496	3.249070
173.102212	3172.310380	1.441361	-0.035592	3.254092
173.524805	3183.290291	1.446366	-0.035674	3.259074
173.826603	3194.348524	1.451370	-0.035733	3.264068
174.293427	3205.350945	1.456375	-0.035823	3.269050
174.659976	3216.365711	1.461380	-0.035895	3.274017
174.868561	3227.393647	1.466384	-0.035937	3.278962
175.257120	3238.416570	1.471389	-0.036012	3.283920
175.612844	3249.418825	1.476394	-0.036082	3.288858
175.722268	3260.463057	1.481399	-0.036105	3.293775
176.102056	3271.463221	1.486403	-0.036179	3.298700
176.383370	3282.460189	1.491408	-0.036234	3.303603
176.625737	3293.489780	1.496413	-0.036283	3.308509
176.919279	3304.519349	1.501417	-0.036340	3.313414
177.306587	3315.514889	1.506422	-0.036416	3.318308
177.602905	3326.549247	1.511427	-0.036474	3.323200
178.037804	3337.551740	1.516432	-0.036559	3.328089
178.414594	3348.568026	1.521436	-0.036632	3.332969
178.747968	3359.594538	1.526441	-0.036697	3.337840
178.982613	3370.604613	1.531446	-0.036744	3.342686
179.337601	3381.623473	1.536451	-0.036813	3.347543
179.689312	3392.643850	1.541455	-0.036882	3.352393
180.154272	3403.660187	1.546460	-0.036972	3.357248
180.137221	3414.711865	1.551465	-0.036972	3.362052
180.426529	3425.699898	1.556469	-0.037029	3.366859
180.683454	3436.689936	1.561474	-0.037080	3.371657
181.140257	3447.721461	1.566479	-0.037168	3.376489
181.540891	3458.724253	1.571484	-0.037246	3.381296
181.681813	3469.766431	1.576488	-0.037275	3.386081
181.915971	3480.771543	1.581493	-0.037322	3.390854
182.299307	3491.782009	1.586498	-0.037396	3.395641
182.571213	3502.816888	1.591503	-0.037450	3.400419
183.102476	3513.815777	1.596507	-0.037553	3.405205
183.444498	3524.839522	1.601512	-0.037619	3.409972
183.479423	3535.865772	1.606517	-0.037629	3.414697
183.908430	3546.871110	1.611521	-0.037712	3.419453
184.250506	3557.884072	1.616526	-0.037779	3.424196
184.492624	3568.914651	1.621531	-0.037827	3.428928
184.737218	3579.930664	1.626536	-0.037876	3.433647
185.164045	3590.923492	1.631540	-0.037958	3.438371
185.455895	3601.945544	1.636545	-0.038016	3.443085
185.939756	3612.980159	1.641550	-0.038109	3.447821
186.166411	3623.978014	1.646555	-0.038155	3.452504
186.543026	3634.998531	1.651559	-0.038228	3.457208
186.750249	3646.015116	1.656564	-0.038270	3.461884
186.912915	3657.059025	1.661569	-0.038303	3.466560
187.313269	3668.037988	1.666573	-0.038381	3.471230
187.610193	3679.065647	1.671578	-0.038439	3.475902
187.976754	3690.061846	1.676583	-0.038511	3.480563
188.426926	3701.103902	1.681588	-0.038598	3.485246
188.790559	3712.122215	1.686592	-0.038669	3.489903
189.073723	3723.126753	1.691597	-0.038725	3.494538
189.468320	3734.143472	1.696602	-0.038802	3.499185
189.657727	3745.195870	1.701606	-0.038840	3.503818
190.040070	3756.190360	1.706611	-0.038914	3.508442
190.179426	3767.177875	1.711616	-0.038943	3.513029
190.491139	3778.218064	1.716621	-0.039004	3.517652
190.810143	3789.230439	1.721625	-0.039067	3.522258
191.157501	3800.258893	1.726630	-0.039135	3.526867
191.289139	3811.293281	1.731635	-0.039162	3.531449
191.779726	3822.254944	1.736640	-0.039257	3.536035
192.067199	3833.283853	1.741644	-0.039314	3.540620
192.505973	3844.305467	1.746649	-0.039399	3.545213
192.666315	3855.327256	1.751654	-0.039432	3.549769
192.888647	3866.339835	1.756658	-0.039476	3.554322
193.256797	3877.373182	1.761663	-0.039548	3.558894
193.700334	3888.360443	1.766668	-0.039634	3.563449
193.934985	3899.406004	1.771673	-0.039681	3.568000
194.196001	3910.398490	1.776677	-0.039732	3.572525
194.469493	3921.413283	1.781682	-0.039786	3.577055
194.889388	3932.419219	1.786687	-0.039868	3.581592
195.250593	3943.454405	1.791692	-0.039938	3.586129
195.449845	3954.463451	1.796696	-0.039978	3.590632
195.876234	3965.452849	1.801701	-0.040061	3.595145
196.164531	3976.487830	1.806706	-0.040118	3.599656
196.444608	3987.526005	1.811710	-0.040173	3.604162
196.637472	3998.538940	1.816715	-0.040212	3.608643
196.884495	4009.546728	1.821720	-0.040261	3.613122
197.316822	4020.557934	1.826725	-0.040345	3.617616
197.668022	4031.551285	1.831729	-0.040414	3.622089
197.817256	4042.608876	1.836734	-0.040444	3.626561
198.009874	4053.610570	1.841739	-0.040483	3.631009
198.312092	4064.635851	1.846744	-0.040543	3.635473
198.512904	4075.634781	1.851748	-0.040583	3.639910
198.755619	4086.666656	1.856753	-0.040631	3.644359
199.114811	4097.701081	1.861758	-0.040702	3.648816
199.335815	4108.734882	1.866762	-0.040746	3.653253
199.543058	4119.755412	1.871767	-0.040787	3.657677
199.944397	4130.736993	1.876772	-0.040865	3.662101
200.378822	4141.783114	1.881777	-0.040950	3.666549
200.596110	4152.786858	1.886781	-0.040993	3.670951
200.992922	4163.839571	1.891786	-0.041070	3.675387
201.277062	4174.803250	1.896791	-0.041126	3.679770
201.488660	4185.873218	1.901795	-0.041169	3.684182
201.829081	4196.839482	1.906800	-0.041235	3.688561
202.187535	4207.871231	1.911805	-0.041305	3.692963
202.814295	4218.873567	1.916810	-0.041426	3.697375
202.992398	4229.911168	1.921814	-0.041462	3.701750
203.348224	4240.915871	1.926819	-0.041531	3.706125
203.634265	4251.946425	1.931824	-0.041588	3.710498
203.913993	4262.944222	1.936829	-0.041643	3.714852
204.363825	4273.948549	1.941833	-0.041730	3.719220
204.585560	4284.990106	1.946838	-0.041775	3.723575
204.764447	4296.005627	1.951843	-0.041811	3.727910
205.045883	4307.018865	1.956847	-0.041866	3.732250
205.273145	4318.028757	1.961852	-0.041912	3.736578
205.622095	4329.013115	1.966857	-0.041980	3.740903
