Wed Nov 23 18:47:16 2022

Number of Points = 2200
Depth (nm)	Load (µN)	Time (s)	Depth (V)	Load (V)
-1.710994	0.687564	0.000000	0.020267	1.000008
0.000000	7.400154	0.005005	0.019944	1.010768
1.487821	16.703195	0.010009	0.019663	1.025024
3.007787	27.386742	0.015014	0.019375	1.041054
4.056828	38.531083	0.020019	0.019175	1.057239
4.911425	49.712549	0.025024	0.019012	1.073132
5.821506	60.855296	0.030028	0.018839	1.088767
6.620949	72.012684	0.035033	0.018686	1.104146
7.418865	83.165104	0.040038	0.018533	1.119305
8.060335	94.323460	0.045043	0.018410	1.134194
9.283224	105.296523	0.050047	0.018178	1.148926
12.439563	115.960161	0.055052	0.017583	1.163978
14.551821	127.316552	0.060057	0.017184	1.179222
16.389673	138.469120	0.065061	0.016836	1.193894
18.257012	149.627266	0.070066	0.016483	1.208407
19.822154	160.789088	0.075071	0.016187	1.222617
21.241054	171.931244	0.080076	0.015918	1.236576
22.566750	183.047478	0.085080	0.015666	1.250307
24.006414	194.151111	0.090085	0.015393	1.263923
24.939894	205.327893	0.095090	0.015215	1.277263
26.278015	216.361220	0.100094	0.014962	1.290470
27.491611	227.515672	0.105099	0.014731	1.303627
28.684219	238.559252	0.110104	0.014505	1.316520
29.966461	249.615352	0.115109	0.014261	1.329337
31.218213	260.737125	0.120113	0.014024	1.342090
32.304002	271.802158	0.125118	0.013817	1.354596
33.590235	282.868017	0.130123	0.013573	1.367065
34.795835	293.960083	0.135128	0.013344	1.379418
35.946599	305.023916	0.140132	0.013126	1.391610
37.011703	316.146144	0.145137	0.012923	1.403723
38.190266	327.184093	0.150142	0.012699	1.415688
39.303560	338.249108	0.155146	0.012487	1.427555
40.821231	349.263093	0.160151	0.012200	1.439420
41.889321	360.402253	0.165156	0.011997	1.451151
43.044699	371.476821	0.170161	0.011777	1.462753
43.883142	382.566584	0.175165	0.011617	1.474164
45.219046	393.571335	0.180170	0.011364	1.485581
46.023090	404.714129	0.185175	0.011210	1.496857
46.877921	415.758022	0.190180	0.011047	1.507969
47.700237	426.835825	0.195184	0.010890	1.519022
48.830351	437.846122	0.200189	0.010675	1.530035
49.839456	448.914575	0.205194	0.010483	1.540984
50.805569	459.992400	0.210198	0.010299	1.551848
51.799059	471.004587	0.215203	0.010110	1.562585
52.969831	482.061049	0.220208	0.009887	1.573347
53.841170	493.159213	0.225213	0.009721	1.583976
54.937257	504.177437	0.230217	0.009513	1.594534
55.577939	515.311576	0.235222	0.009390	1.604978
56.716399	526.255876	0.240227	0.009173	1.615344
57.573020	537.381214	0.245232	0.009010	1.625716
58.574359	548.394972	0.250236	0.008819	1.635968
59.273283	559.476496	0.255241	0.008685	1.646120
60.487862	570.458119	0.260246	0.008455	1.656283
61.382784	581.555382	0.265250	0.008284	1.666385
62.462071	592.558216	0.270255	0.008079	1.676401
63.398148	603.635738	0.275260	0.007901	1.686377
64.530747	614.669577	0.280265	0.007685	1.696317
65.126633	625.788764	0.285269	0.007571	1.706108
65.882644	636.801562	0.290274	0.007426	1.715801
66.925932	647.805782	0.295279	0.007228	1.725518
67.718686	658.890139	0.300283	0.007076	1.735172
68.323287	669.946519	0.305288	0.006960	1.744694
69.142334	680.971644	0.310293	0.006804	1.754201
69.746766	692.049658	0.315298	0.006687	1.763637
70.565139	703.056075	0.320302	0.006531	1.773025
71.401986	714.077828	0.325307	0.006371	1.782382
72.430858	725.105681	0.330312	0.006176	1.791750
72.940637	736.220553	0.335317	0.006077	1.800991
74.058331	747.157146	0.340321	0.005865	1.810213
75.032744	758.234545	0.345326	0.005679	1.819461
75.874552	769.288954	0.350331	0.005518	1.828606
76.612019	780.344745	0.355335	0.005377	1.837676
77.838629	791.305961	0.360340	0.005145	1.846763
78.657482	802.409541	0.365345	0.004988	1.855805
79.560202	813.436364	0.370350	0.004816	1.864765
80.209431	824.487129	0.375354	0.004691	1.873631
81.007440	835.542325	0.380359	0.004539	1.882499
81.500496	846.595543	0.385364	0.004444	1.891241
82.344468	857.584435	0.390369	0.004283	1.899987
83.199340	868.601407	0.395373	0.004119	1.908718
84.091724	879.669944	0.400378	0.003949	1.917457
84.573694	890.729803	0.405383	0.003856	1.926042
85.599265	901.719653	0.410387	0.003661	1.934678
86.075300	912.811469	0.415392	0.003569	1.943208
86.808392	923.799210	0.420397	0.003429	1.951690
87.141830	934.893137	0.425402	0.003363	1.960110
88.227923	945.835867	0.430406	0.003157	1.968576
88.762493	956.943452	0.435411	0.003054	1.976986
89.656170	967.911263	0.440416	0.002883	1.985348
90.226243	978.987053	0.445421	0.002774	1.993672
90.795132	990.044172	0.450425	0.002664	2.001948
91.431314	1001.032808	0.455430	0.002542	2.010156
92.092492	1012.124918	0.460435	0.002415	2.018411
92.807322	1023.074397	0.465439	0.002278	2.026543
93.967051	1034.101659	0.470444	0.002058	2.034809
94.435290	1045.211166	0.475449	0.001967	2.042929
95.484316	1056.165490	0.480454	0.001768	2.051048
95.997972	1067.263063	0.485458	0.001669	2.059106
97.106519	1078.221167	0.490463	0.001458	2.067179
97.830708	1089.306045	0.495468	0.001319	2.075216
98.352912	1100.361072	0.500472	0.001219	2.083152
98.859682	1111.391882	0.505477	0.001121	2.091036
99.629063	1122.403877	0.510482	0.000974	2.098941
100.311372	1133.394036	0.515487	0.000843	2.106780
100.779620	1144.508736	0.520491	0.000752	2.114625
101.403894	1155.476528	0.525496	0.000633	2.122376
101.976817	1166.525001	0.530501	0.000522	2.130143
102.857283	1177.522720	0.535506	0.000354	2.137917
103.346950	1188.598456	0.540510	0.000260	2.145626
104.102884	1199.563573	0.545515	0.000115	2.153293
104.930067	1210.641270	0.550520	-0.000043	2.161026
105.493397	1221.630925	0.555524	-0.000151	2.168610
106.585138	1232.659536	0.560529	-0.000359	2.176315
106.940917	1243.754282	0.565534	-0.000428	2.183870
107.530155	1254.739647	0.570539	-0.000542	2.191377
108.223088	1265.780893	0.575543	-0.000674	2.198920
108.813854	1276.807758	0.580548	-0.000788	2.206404
109.399766	1287.814969	0.585553	-0.000901	2.213849
110.055513	1298.866051	0.590558	-0.001026	2.221312
110.726608	1309.862393	0.595562	-0.001155	2.228718
111.283491	1320.926041	0.600567	-0.001262	2.236118
111.829330	1331.938474	0.605572	-0.001367	2.243458
112.641345	1342.954190	0.610576	-0.001522	2.250834
113.007441	1354.036765	0.615581	-0.001594	2.258131
113.514993	1365.013829	0.620586	-0.001692	2.265368
114.308966	1376.005009	0.625591	-0.001844	2.272652
114.860575	1387.077650	0.630595	-0.001950	2.279912
115.434239	1398.099400	0.635600	-0.002060	2.287122
116.074270	1409.118896	0.640605	-0.002183	2.294322
116.502345	1420.153432	0.645610	-0.002266	2.301463
117.220017	1431.150582	0.650614	-0.002403	2.308619
117.888934	1442.183006	0.655619	-0.002532	2.315766
118.313818	1453.246760	0.660624	-0.002614	2.322858
118.804351	1464.261538	0.665628	-0.002709	2.329912
119.227288	1475.291427	0.670633	-0.002791	2.336940
119.664416	1486.306885	0.675638	-0.002876	2.343940
120.496439	1497.299910	0.680643	-0.003035	2.350987
121.123734	1508.325053	0.685647	-0.003155	2.357990
121.662675	1519.381505	0.690652	-0.003259	2.364974
122.197239	1530.405600	0.695657	-0.003362	2.371916
122.759357	1541.417060	0.700661	-0.003470	2.378836
123.302059	1552.442245	0.705666	-0.003575	2.385739
123.925674	1563.463883	0.710671	-0.003694	2.392637
124.597594	1574.483510	0.715676	-0.003823	2.399523
125.330234	1585.490525	0.720680	-0.003963	2.406394
125.977544	1596.552274	0.725685	-0.004088	2.413261
126.975775	1607.480322	0.730690	-0.004278	2.420097
127.892903	1618.560071	0.735695	-0.004452	2.426990
128.413974	1629.621365	0.740699	-0.004553	2.433773
129.069407	1640.595805	0.745704	-0.004679	2.440511
129.673177	1651.670269	0.750709	-0.004795	2.447280
130.154070	1662.708688	0.755713	-0.004888	2.453985
130.608309	1673.693553	0.760718	-0.004976	2.460634
131.181456	1684.717497	0.765723	-0.005086	2.467312
131.720250	1695.768890	0.770728	-0.005190	2.473981
132.344238	1706.736597	0.775732	-0.005310	2.480598
133.019080	1717.795209	0.780737	-0.005439	2.487262
133.546537	1728.833726	0.785742	-0.005541	2.493867
134.408485	1739.805548	0.790747	-0.005705	2.500479
135.292658	1750.807119	0.795751	-0.005874	2.507095
136.032418	1761.895245	0.800756	-0.006015	2.513717
136.402718	1772.900179	0.805761	-0.006087	2.520203
136.793543	1783.967938	0.810765	-0.006164	2.526712
137.074927	1794.988916	0.815770	-0.006219	2.533157
137.463142	1805.969252	0.820775	-0.006295	2.539582
137.945505	1816.984376	0.825780	-0.006388	2.546028
138.918775	1827.997046	0.830784	-0.006573	2.552547
139.604982	1839.010923	0.835789	-0.006705	2.558998
140.320326	1850.050993	0.840794	-0.006842	2.565451
140.916263	1861.080042	0.845799	-0.006956	2.571861
141.444621	1872.186875	0.850803	-0.007058	2.578286
141.927895	1883.108117	0.855808	-0.007151	2.584581
142.743721	1894.128543	0.860813	-0.007307	2.590978
143.025272	1905.205244	0.865817	-0.007363	2.597293
143.528488	1916.185918	0.870822	-0.007460	2.603579
144.042900	1927.198565	0.875827	-0.007559	2.609870
144.554404	1938.239696	0.880832	-0.007658	2.616161
145.023773	1949.266596	0.885836	-0.007749	2.622421
145.310332	1960.295778	0.890841	-0.007805	2.628635
145.644605	1971.306510	0.895846	-0.007871	2.634832
146.348452	1982.314075	0.900850	-0.008006	2.641078
147.033844	1993.319592	0.905855	-0.008137	2.647305
147.742776	2004.355465	0.910860	-0.008273	2.653538
148.250540	2015.369245	0.915865	-0.008371	2.659708
148.803761	2026.400518	0.920869	-0.008477	2.665882
149.194781	2037.429374	0.925874	-0.008553	2.672012
149.815861	2048.431099	0.930879	-0.008673	2.678153
150.266365	2059.433501	0.935884	-0.008760	2.684250
150.822863	2070.475501	0.940888	-0.008867	2.690373
151.296432	2081.478923	0.945893	-0.008959	2.696447
151.769373	2092.512575	0.950898	-0.009050	2.702523
152.262891	2103.521366	0.955902	-0.009145	2.708576
152.669567	2114.553335	0.960907	-0.009224	2.714613
153.111680	2125.551159	0.965912	-0.009310	2.720623
153.710674	2136.586024	0.970917	-0.009425	2.726667
154.317869	2147.604593	0.975921	-0.009542	2.732690
154.950554	2158.597685	0.980926	-0.009663	2.738690
155.302766	2169.652309	0.985931	-0.009732	2.744663
155.958034	2180.655169	0.990936	-0.009858	2.750646
156.418080	2191.683536	0.995940	-0.009947	2.756596
157.019151	2202.698645	1.000945	-0.010062	2.762550
157.337836	2213.739949	1.005950	-0.010125	2.768458
157.838781	2224.738257	1.010954	-0.010222	2.774361
158.256993	2235.768094	1.015959	-0.010303	2.780254
158.633633	2246.784406	1.020964	-0.010376	2.786121
159.176454	2257.804131	1.025969	-0.010481	2.792004
159.841304	2268.817531	1.030973	-0.010608	2.797891
160.109154	2279.862029	1.035978	-0.010661	2.803717
160.569403	2290.867658	1.040983	-0.010750	2.809542
160.902978	2301.885072	1.045988	-0.010816	2.815341
161.434140	2312.915982	1.050992	-0.010918	2.821166
161.910941	2323.903528	1.055997	-0.011010	2.826948
162.140363	2334.973248	1.061002	-0.011056	2.832721
162.814983	2345.914228	1.066006	-0.011185	2.838487
163.226753	2357.009158	1.071011	-0.011265	2.844278
163.629263	2367.999596	1.076016	-0.011344	2.850002
164.103808	2379.021407	1.081021	-0.011435	2.855742
164.621979	2390.022058	1.086025	-0.011535	2.861467
165.165461	2401.055273	1.091030	-0.011640	2.867200
165.427697	2412.098641	1.096035	-0.011692	2.872883
165.877053	2423.080330	1.101039	-0.011779	2.878553
166.462517	2434.116112	1.106044	-0.011892	2.884260
166.904207	2445.158862	1.111049	-0.011977	2.889937
167.292049	2456.147867	1.116054	-0.012053	2.895567
167.716251	2467.189594	1.121058	-0.012135	2.901218
167.955233	2478.188689	1.126063	-0.012183	2.906808
168.527549	2489.214039	1.131068	-0.012293	2.912451
168.789229	2500.216482	1.136073	-0.012345	2.918025
169.285059	2511.243550	1.141077	-0.012440	2.923636
169.785396	2522.268552	1.146082	-0.012537	2.929235
170.107875	2533.297517	1.151087	-0.012600	2.934799
170.484299	2544.295058	1.156091	-0.012673	2.940345
171.258805	2555.294449	1.161096	-0.012822	2.945941
171.722333	2566.352247	1.166101	-0.012911	2.951508
172.196480	2577.365264	1.171106	-0.013003	2.957044
172.492794	2588.378281	1.176110	-0.013061	2.962544
172.888757	2599.399629	1.181115	-0.013138	2.968051
173.265908	2610.422896	1.186120	-0.013212	2.973547
173.854808	2621.430912	1.191125	-0.013325	2.979056
174.292367	2632.431936	1.196129	-0.013410	2.984530
174.578175	2643.496243	1.201134	-0.013466	2.990001
174.775170	2654.491798	1.206139	-0.013506	2.995416
175.068487	2665.539190	1.211143	-0.013564	3.000861
175.495756	2676.497534	1.216148	-0.013647	3.006271
176.368946	2687.517859	1.221153	-0.013813	3.011768
176.680774	2698.559462	1.226158	-0.013874	3.017182
177.139053	2709.575392	1.231162	-0.013963	3.022596
177.479274	2720.604395	1.236167	-0.014030	3.027989
178.029275	2731.598393	1.241172	-0.014136	3.033385
178.438564	2742.632659	1.246177	-0.014215	3.038771
178.954664	2753.646614	1.251181	-0.014315	3.044153
179.180816	2764.704179	1.256186	-0.014360	3.049505
179.320166	2775.701244	1.261191	-0.014389	3.054806
179.600825	2786.707404	1.266195	-0.014444	3.060122
180.079512	2797.713896	1.271200	-0.014537	3.065457
180.534461	2808.756307	1.276205	-0.014625	3.070797
180.957430	2819.756514	1.281210	-0.014707	3.076102
181.292950	2830.762749	1.286214	-0.014773	3.081389
181.753373	2841.799214	1.291219	-0.014862	3.086699
181.836893	2852.836428	1.296224	-0.014880	3.091947
182.066527	2863.826809	1.301228	-0.014926	3.097184
182.523342	2874.838923	1.306233	-0.015014	3.102454
182.758568	2885.881429	1.311238	-0.015061	3.107699
183.031318	2896.897287	1.316243	-0.015115	3.112927
183.346542	2907.922094	1.321247	-0.015177	3.118157
183.630543	2918.917724	1.326252	-0.015233	3.123359
183.970151	2929.957619	1.331257	-0.015299	3.128582
184.233655	2940.947237	1.336262	-0.015352	3.133762
184.559475	2951.985164	1.341266	-0.015415	3.138964
184.905061	2962.982364	1.346271	-0.015483	3.144141
185.165958	2974.020871	1.351276	-0.015535	3.149317
185.459449	2985.020558	1.356280	-0.015593	3.154471
185.859364	2996.046451	1.361285	-0.015670	3.159644
186.410635	3007.037829	1.366290	-0.015776	3.164812
186.708576	3018.112951	1.371295	-0.015835	3.169976
186.954416	3029.086355	1.376299	-0.015884	3.175078
187.126817	3040.130915	1.381304	-0.015919	3.180194
187.393159	3051.121980	1.386309	-0.015972	3.185290
187.758091	3062.165464	1.391314	-0.016043	3.190415
187.916278	3073.165298	1.396318	-0.016075	3.195484
188.346108	3084.177551	1.401323	-0.016159	3.200587
188.648684	3095.192825	1.406328	-0.016218	3.205666
189.060398	3106.236676	1.411332	-0.016298	3.210765
189.453665	3117.188053	1.416337	-0.016375	3.215811
189.678285	3128.274432	1.421342	-0.016420	3.220888
189.932176	3139.253919	1.426347	-0.016470	3.225912
190.248266	3150.307183	1.431351	-0.016532	3.230970
190.445552	3161.297892	1.436356	-0.016572	3.235976
190.968954	3172.299589	1.441361	-0.016673	3.241022
191.318141	3183.340743	1.446366	-0.016741	3.246055
191.606209	3194.356693	1.451370	-0.016798	3.251061
191.862523	3205.371979	1.456375	-0.016849	3.256054
192.128373	3216.390583	1.461380	-0.016901	3.261043
192.636302	3227.390348	1.466384	-0.016999	3.266047
193.017534	3238.429838	1.471389	-0.017073	3.271044
193.342131	3249.414141	1.476394	-0.017137	3.276002
194.982448	3260.311384	1.481399	-0.017448	3.281081
196.954109	3271.404339	1.486403	-0.017820	3.286281
197.452711	3282.488798	1.491408	-0.017917	3.291282
197.930120	3293.487773	1.496413	-0.018009	3.296234
198.359727	3304.531446	1.501417	-0.018092	3.301193
198.732446	3315.530120	1.506422	-0.018165	3.306117
198.948863	3326.567381	1.511427	-0.018208	3.311031
199.407031	3337.544882	1.516432	-0.018297	3.315942
199.883775	3348.589760	1.521436	-0.018389	3.320877
200.174593	3359.615595	1.526441	-0.018446	3.325773
200.750908	3370.610563	1.531446	-0.018557	3.330684
201.088900	3381.624281	1.536451	-0.018623	3.335566
201.438212	3392.649852	1.541455	-0.018692	3.340448
202.066459	3403.657427	1.546460	-0.018812	3.345349
202.686560	3414.671924	1.551465	-0.018931	3.350244
203.345430	3425.681505	1.556469	-0.019058	3.355135
203.837139	3436.724013	1.561474	-0.019153	3.360013
204.072178	3447.741114	1.566479	-0.019200	3.364841
204.558379	3458.761246	1.571484	-0.019294	3.369694
204.756900	3469.782005	1.576488	-0.019334	3.374505
205.073396	3480.783486	1.581493	-0.019396	3.379315
205.460540	3491.789119	1.586498	-0.019471	3.384128
205.740170	3502.846629	1.591503	-0.019526	3.388944
206.005692	3513.803269	1.596507	-0.019579	3.393708
206.475580	3524.843161	1.601512	-0.019670	3.398526
207.079335	3535.858246	1.606517	-0.019786	3.403342
207.507872	3546.884532	1.611521	-0.019869	3.408135
208.074709	3557.866470	1.616526	-0.019978	3.412918
208.484043	3568.930703	1.621531	-0.020057	3.417711
208.794472	3579.904794	1.626536	-0.020118	3.422447
208.985739	3590.980024	1.631540	-0.020157	3.427206
209.323769	3601.955561	1.636545	-0.020223	3.431933
209.685396	3612.992042	1.641550	-0.020294	3.436682
210.081955	3623.975054	1.646555	-0.020371	3.441405
210.802157	3635.015688	1.651559	-0.020509	3.446185
211.219382	3646.005082	1.656564	-0.020590	3.450900
211.811498	3657.048653	1.661569	-0.020704	3.455652
212.177302	3668.041914	1.666573	-0.020775	3.460350
212.595393	3679.094447	1.671578	-0.020856	3.465073
212.992985	3690.073397	1.676583	-0.020933	3.469756
213.483053	3701.122925	1.681588	-0.021028	3.474472
213.752898	3712.133320	1.686592	-0.021082	3.479141
214.208640	3723.146482	1.691597	-0.021170	3.483825
214.808406	3734.150378	1.696602	-0.021285	3.488516
214.962172	3745.196185	1.701606	-0.021317	3.493167
215.224312	3756.184021	1.706611	-0.021369	3.497800
215.689925	3767.202878	1.711616	-0.021459	3.502462
216.059320	3778.218197	1.716621	-0.021531	3.507106
216.308598	3789.241464	1.721625	-0.021580	3.511734
216.462883	3800.263340	1.726630	-0.021612	3.516344
216.904646	3811.275063	1.731635	-0.021697	3.520976
217.414863	3822.274861	1.736640	-0.021796	3.525605
217.759892	3833.324567	1.741644	-0.021863	3.530229
218.193266	3844.301101	1.746649	-0.021947	3.534827
218.549558	3855.336570	1.751654	-0.022017	3.539435
218.796182	3866.361207	1.756658	-0.022066	3.544020
219.172216	3877.398724	1.761663	-0.022139	3.548619
219.447514	3888.375016	1.766668	-0.022194	3.553175
220.002404	3899.386713	1.771673	-0.022301	3.557771
220.536222	3910.389962	1.776677	-0.022403	3.562355
220.824314	3921.451846	1.781682	-0.022460	3.566930
220.876027	3932.434757	1.786687	-0.022473	3.571441
221.239603	3943.476090	1.791692	-0.022544	3.576004
221.546632	3954.450797	1.796696	-0.022604	3.580527
221.809308	3965.515754	1.801701	-0.022656	3.585077
222.183569	3976.498583	1.806706	-0.022729	3.589600
222.413703	3987.548652	1.811710	-0.022775	3.594129
222.685542	3998.534977	1.816715	-0.022829	3.598631
223.052137	4009.564616	1.821720	-0.022900	3.603155
223.698167	4020.571775	1.826725	-0.023024	3.607694
223.984970	4031.586436	1.831729	-0.023081	3.612191
224.439564	4042.597518	1.836734	-0.023169	3.616700
224.724070	4053.618450	1.841739	-0.023225	3.621188
225.224570	4064.623907	1.846744	-0.023321	3.625688
225.496177	4075.658406	1.851748	-0.023375	3.630169
225.937292	4086.649555	1.856753	-0.023461	3.634646
226.535848	4097.688347	1.861758	-0.023576	3.639152
227.036728	4108.750043	1.866762	-0.023672	3.643652
227.391674	4119.791192	1.871767	-0.023742	3.648122
227.596834	4130.784367	1.876772	-0.023783	3.652552
227.906478	4141.807270	1.881777	-0.023844	3.656999
228.193856	4152.779432	1.886781	-0.023900	3.661419
228.633966	4163.832922	1.891786	-0.023986	3.665881
229.017072	4174.830671	1.896791	-0.024060	3.670309
229.414592	4185.868837	1.901795	-0.024138	3.674750
229.685983	4196.850118	1.906800	-0.024191	3.679150
230.059920	4207.910700	1.911805	-0.024264	3.683586
230.441526	4218.902708	1.916810	-0.024338	3.687991
230.640880	4229.951781	1.921814	-0.024379	3.692394
230.872940	4240.931577	1.926819	-0.024425	3.696767
231.235493	4251.950628	1.931824	-0.024496	3.701164
231.895948	4262.930967	1.936829	-0.024622	3.705572
232.071026	4273.995586	1.941833	-0.024658	3.709957
232.617584	4284.968393	1.946838	-0.024763	3.714339
233.340132	4296.009000	1.951843	-0.024901	3.718761
233.682937	4307.030607	1.956847	-0.024968	3.723131
234.290905	4318.058944	1.961852	-0.025085	3.727525
234.581072	4329.035607	1.966857	-0.025142	3.731861
235.037986	4340.081117	1.971862	-0.025231	3.736236
235.549358	4351.053327	1.976866	-0.025330	3.740583
