Wed Nov 23 18:09:14 2022

Number of Points = 2200
Depth (nm)	Load (µN)	Time (s)	Depth (V)	Load (V)
-10.138000	-0.277214	0.000000	0.059800	0.875282
0.000000	4.611661	0.005005	0.057897	0.889814
4.217594	14.521056	0.010009	0.057103	0.908707
7.195129	25.643436	0.015014	0.056542	0.928411
9.545102	36.992772	0.020019	0.056098	0.947693
11.331626	48.389240	0.025024	0.055760	0.966340
12.714487	59.748344	0.030028	0.055498	0.984351
13.871094	71.028907	0.035033	0.055278	1.001797
14.986446	82.228353	0.040038	0.055066	1.018804
16.395984	93.349169	0.045043	0.054798	1.035574
17.233293	104.629078	0.050047	0.054639	1.052002
18.371227	115.756702	0.055052	0.054422	1.068119
19.144484	126.973453	0.060057	0.054274	1.083934
20.065072	138.108158	0.065061	0.054099	1.099483
20.852795	149.257441	0.070066	0.053948	1.114769
21.659501	160.402673	0.075071	0.053794	1.129851
22.430278	171.529092	0.080076	0.053647	1.144693
23.131694	182.674739	0.085080	0.053512	1.159337
23.616528	193.819658	0.090085	0.053419	1.173696
24.580947	204.856744	0.095090	0.053235	1.187965
26.212817	215.659077	0.100094	0.052926	1.202078
38.747395	224.789773	0.105099	0.050572	1.218846
39.760908	237.729256	0.110104	0.050379	1.234888
40.616631	249.240159	0.115109	0.050215	1.248966
41.467443	260.393951	0.120113	0.050053	1.262466
42.640208	271.447077	0.125118	0.049830	1.275842
43.686635	282.533110	0.130123	0.049631	1.289063
45.129681	293.635431	0.135128	0.049357	1.302332
46.063095	304.743235	0.140132	0.049179	1.315264
47.168046	315.826341	0.145137	0.048969	1.328111
48.175835	326.897720	0.150142	0.048777	1.340783
49.117786	337.997760	0.155146	0.048598	1.353340
50.271266	349.027775	0.160151	0.048379	1.365789
51.229010	360.177401	0.165156	0.048196	1.378176
52.120937	371.242350	0.170161	0.048026	1.390338
52.931203	382.329780	0.175165	0.047871	1.402385
54.130342	393.334526	0.180170	0.047644	1.414391
55.055309	404.440368	0.185175	0.047467	1.426296
56.178764	415.469022	0.190180	0.047254	1.438097
57.234053	426.576893	0.195184	0.047053	1.449857
58.121929	437.658586	0.200189	0.046884	1.461434
59.030919	448.716217	0.205194	0.046710	1.472903
60.075447	459.744332	0.210198	0.046512	1.484302
61.293082	470.799004	0.215203	0.046281	1.495701
62.066068	481.925352	0.220208	0.046133	1.506927
63.089175	492.952634	0.225213	0.045938	1.518061
63.931066	504.030758	0.230217	0.045777	1.529099
65.041914	515.077617	0.235222	0.045566	1.540120
65.889127	526.122074	0.240227	0.045404	1.550970
66.616810	537.221195	0.245232	0.045265	1.561755
67.459520	548.269427	0.250236	0.045104	1.572457
68.111212	559.349396	0.255241	0.044979	1.583052
68.931163	570.347955	0.260246	0.044823	1.593556
69.696212	581.440590	0.265250	0.044676	1.604060
70.522089	592.479357	0.270255	0.044519	1.614465
71.270536	603.544808	0.275260	0.044375	1.624803
72.060942	614.571861	0.280265	0.044224	1.635054
72.853491	625.629402	0.285269	0.044073	1.645268
73.866338	636.630201	0.290274	0.043880	1.655438
74.889253	647.684828	0.295279	0.043686	1.665597
75.891556	658.736839	0.300283	0.043495	1.675684
76.516415	669.839182	0.305288	0.043375	1.685638
77.603465	680.815060	0.310293	0.043168	1.695565
78.556648	691.895239	0.315298	0.042986	1.705484
79.393231	702.937542	0.320302	0.042827	1.715276
79.953000	714.034645	0.325307	0.042719	1.724975
80.441534	725.094812	0.330312	0.042625	1.734567
81.354028	736.078602	0.335317	0.042451	1.744169
81.995577	747.121916	0.340321	0.042327	1.753686
82.816370	758.171599	0.345326	0.042171	1.763211
83.413601	769.248922	0.350331	0.042056	1.772641
84.216238	780.247300	0.355335	0.041903	1.782015
84.868078	791.313406	0.360340	0.041778	1.791352
85.527098	802.356657	0.365345	0.041651	1.800624
86.315636	813.361012	0.370350	0.041500	1.809853
87.104340	824.397487	0.375354	0.041350	1.819061
87.832768	835.463872	0.380359	0.041210	1.828230
88.455303	846.514948	0.385364	0.041091	1.837310
89.150122	857.538579	0.390369	0.040958	1.846344
89.972508	868.562109	0.395373	0.040801	1.855369
90.813388	879.599144	0.400378	0.040640	1.864365
91.535984	890.652552	0.405383	0.040502	1.873299
92.258751	901.694308	0.410387	0.040363	1.882180
92.849287	912.743014	0.415392	0.040250	1.890989
93.318869	923.783089	0.420397	0.040159	1.899717
94.011436	934.798687	0.425402	0.040026	1.908447
94.633307	945.831478	0.430406	0.039907	1.917130
95.565428	956.845228	0.435411	0.039729	1.925842
96.095442	967.943883	0.440416	0.039627	1.934473
96.662902	978.935697	0.445421	0.039518	1.942994
97.531627	989.931054	0.450425	0.039352	1.951559
98.096333	1001.030430	0.455430	0.039243	1.960085
98.843879	1012.030188	0.460435	0.039100	1.968547
99.284915	1023.110582	0.465439	0.039015	1.976954
99.833387	1034.140085	0.470444	0.038909	1.985314
100.501000	1045.133782	0.475449	0.038781	1.993643
101.252187	1056.191565	0.480454	0.038638	2.002006
101.647471	1067.259663	0.485458	0.038561	2.010251
102.184407	1078.264044	0.490463	0.038457	2.018451
102.746600	1089.287602	0.495468	0.038349	2.026638
103.370590	1100.319743	0.500472	0.038229	2.034814
104.299953	1111.286226	0.505477	0.038052	2.042985
104.788434	1122.416281	0.510482	0.037958	2.051131
105.296032	1133.420626	0.515487	0.037860	2.059160
105.929840	1144.430315	0.520491	0.037738	2.067193
106.481964	1155.479327	0.525496	0.037632	2.075202
107.176170	1166.484336	0.530501	0.037499	2.083183
107.704112	1177.557182	0.535506	0.037397	2.091141
108.340660	1188.568920	0.540510	0.037275	2.099052
108.818560	1199.589729	0.545515	0.037182	2.106902
109.357069	1210.633703	0.550520	0.037079	2.114753
109.978379	1221.638585	0.555524	0.036959	2.122566
110.674945	1232.687315	0.560529	0.036826	2.130400
111.279822	1243.693622	0.565534	0.036710	2.138153
111.731329	1254.758590	0.570539	0.036622	2.145883
112.021851	1265.801387	0.575543	0.036565	2.153532
112.577341	1276.802638	0.580548	0.036458	2.161186
113.016288	1287.820533	0.585553	0.036373	2.168799
113.688783	1298.867513	0.590558	0.036244	2.176457
114.028587	1309.907259	0.595562	0.036177	2.184008
114.611292	1320.900990	0.600567	0.036065	2.191556
115.090133	1331.938028	0.605572	0.035973	2.199084
115.711813	1342.968140	0.610576	0.035853	2.206614
116.322861	1353.976913	0.615581	0.035736	2.214102
116.877292	1365.021709	0.620586	0.035629	2.221575
117.278937	1376.066238	0.625591	0.035551	2.228988
117.823992	1387.065031	0.630595	0.035446	2.236379
118.145953	1398.141192	0.635600	0.035383	2.243747
118.688289	1409.111556	0.640605	0.035279	2.251069
119.250290	1420.172424	0.645610	0.035170	2.258431
119.740686	1431.180484	0.650614	0.035076	2.265719
120.372070	1442.195428	0.655619	0.034954	2.273018
120.944096	1453.204462	0.660624	0.034844	2.280277
121.460664	1464.257909	0.665628	0.034745	2.287530
121.903282	1475.311302	0.670633	0.034659	2.294744
122.453289	1486.280377	0.675638	0.034553	2.301903
122.961204	1497.340319	0.680643	0.034455	2.309090
123.392414	1508.360386	0.685647	0.034371	2.316212
124.103743	1519.372273	0.690652	0.034235	2.323366
124.383918	1530.435124	0.695657	0.034180	2.330440
124.776445	1541.455164	0.700661	0.034103	2.337488
125.243791	1552.455502	0.705666	0.034013	2.344519
125.833580	1563.469664	0.710671	0.033900	2.351562
126.376606	1574.508333	0.715676	0.033795	2.358590
126.885007	1585.525177	0.720680	0.033697	2.365576
127.237253	1596.582613	0.725685	0.033628	2.372534
127.673730	1607.591360	0.730690	0.033543	2.379459
128.226972	1618.571841	0.735695	0.033437	2.386370
128.639971	1629.661676	0.740699	0.033357	2.393300
129.086109	1640.647663	0.745704	0.033270	2.400152
129.733538	1651.668985	0.750709	0.033146	2.407047
130.007553	1662.750249	0.755713	0.033092	2.413884
130.428325	1673.701379	0.760718	0.033010	2.420651
130.956180	1684.741615	0.765723	0.032908	2.427475
131.518243	1695.774936	0.770728	0.032800	2.434283
131.905091	1706.793866	0.775732	0.032725	2.441027
132.253592	1717.842956	0.780737	0.032657	2.447764
132.747177	1728.857341	0.785742	0.032561	2.454489
133.092882	1739.858321	0.790747	0.032494	2.461159
133.331152	1750.899180	0.795751	0.032446	2.467814
134.006344	1761.882280	0.800756	0.032317	2.474501
134.744988	1772.910055	0.805761	0.032176	2.481209
135.306646	1783.944828	0.810765	0.032068	2.487869
135.926538	1794.970177	0.815770	0.031948	2.494516
136.500858	1805.994082	0.820775	0.031838	2.501136
137.034184	1817.005888	0.825780	0.031735	2.507723
137.621138	1828.050232	0.830784	0.031622	2.514322
137.869207	1839.073526	0.835789	0.031573	2.520827
138.385453	1850.103978	0.840794	0.031473	2.527370
138.832075	1861.108535	0.845799	0.031387	2.533867
139.331656	1872.120000	0.850803	0.031290	2.540362
140.050572	1883.125826	0.855808	0.031153	2.546878
140.733252	1894.196351	0.860813	0.031022	2.553408
140.758076	1905.214552	0.865817	0.031015	2.559768
141.303409	1916.218636	0.870822	0.030910	2.566201
141.782895	1927.249442	0.875827	0.030817	2.572621
142.181139	1938.340093	0.880832	0.030739	2.579044
142.615906	1949.265755	0.885836	0.030655	2.585363
143.021356	1960.332700	0.890841	0.030576	2.591742
143.466494	1971.319023	0.895846	0.030490	2.598066
143.979828	1982.330150	0.900850	0.030391	2.604402
144.774774	1993.344861	0.905855	0.030239	2.610775
145.391859	2004.369178	0.910860	0.030121	2.617105
145.726070	2015.431837	0.915865	0.030055	2.623391
145.954066	2026.456894	0.920869	0.030010	2.629621
146.267553	2037.472736	0.925874	0.029948	2.635847
146.840690	2048.457922	0.930879	0.029838	2.642087
147.342374	2059.462072	0.935884	0.029741	2.648310
147.794126	2070.508966	0.940888	0.029653	2.654534
148.110393	2081.526074	0.945893	0.029591	2.660702
148.401155	2092.545095	0.950898	0.029534	2.666852
148.760836	2103.553332	0.955902	0.029464	2.672994
149.496856	2114.541091	0.960907	0.029323	2.679177
150.077123	2125.589814	0.965912	0.029211	2.685351
150.672653	2136.626841	0.970917	0.029097	2.691507
151.005601	2147.641089	0.975921	0.029032	2.697592
151.268671	2158.672970	0.980926	0.028980	2.703660
151.673548	2169.672547	0.985931	0.028901	2.709721
152.688823	2180.646043	0.990936	0.028708	2.715858
153.093213	2191.728277	0.995940	0.028629	2.721937
153.929700	2202.714656	1.000945	0.028469	2.728023
154.133392	2213.786930	1.005950	0.028428	2.734034
154.588255	2224.771169	1.010954	0.028340	2.740028
155.036447	2235.796676	1.015959	0.028254	2.746029
155.684087	2246.805227	1.020964	0.028129	2.752041
156.265849	2257.824297	1.025969	0.028017	2.758035
156.660980	2268.861011	1.030973	0.027941	2.763994
156.904119	2279.886337	1.035978	0.027892	2.769908
157.250991	2290.918366	1.040983	0.027824	2.775830
157.728209	2301.915386	1.045988	0.027732	2.781743
158.457653	2312.911356	1.050992	0.027593	2.787684
158.821133	2323.966008	1.055997	0.027522	2.793583
159.683540	2334.913256	1.061002	0.027357	2.799495
160.357273	2345.986858	1.066006	0.027228	2.805430
161.011243	2357.015868	1.071011	0.027102	2.811325
161.515763	2368.037724	1.076016	0.027005	2.817180
161.841005	2379.050914	1.081021	0.026941	2.822988
162.191138	2390.084258	1.086025	0.026873	2.828800
162.547555	2401.113554	1.091030	0.026803	2.834598
162.888713	2412.102609	1.096035	0.026737	2.840361
163.448267	2423.116745	1.101039	0.026629	2.846160
163.945377	2434.159438	1.106044	0.026533	2.851952
164.335258	2445.165081	1.111049	0.026457	2.857696
164.774683	2456.195031	1.116054	0.026372	2.863448
165.167298	2467.217149	1.121058	0.026295	2.869178
165.415108	2478.229034	1.126063	0.026246	2.874868
166.040809	2489.255350	1.131068	0.026126	2.880613
166.458163	2500.255986	1.136073	0.026045	2.886301
166.754119	2511.327754	1.141077	0.025987	2.891995
166.961728	2522.307624	1.146082	0.025945	2.897617
167.528034	2533.307325	1.151087	0.025836	2.903294
168.076553	2544.330978	1.156091	0.025730	2.908969
168.542727	2555.363108	1.161096	0.025640	2.914625
169.009422	2566.384265	1.166101	0.025550	2.920264
169.406484	2577.385319	1.171106	0.025473	2.925871
169.912904	2588.435427	1.176110	0.025375	2.931509
170.363014	2599.416295	1.181115	0.025288	2.937092
170.735214	2610.444188	1.186120	0.025215	2.942676
171.263715	2621.477122	1.191125	0.025113	2.948276
171.641402	2632.493016	1.196129	0.025040	2.953834
171.955057	2643.530111	1.201134	0.024978	2.959382
172.307461	2654.517469	1.206139	0.024909	2.964901
172.885284	2665.546091	1.211143	0.024798	2.970464
173.285426	2676.567906	1.216148	0.024720	2.975986
173.552442	2687.594088	1.221153	0.024667	2.981480
174.049093	2698.600591	1.226158	0.024571	2.986989
174.380579	2709.610027	1.231162	0.024507	2.992464
174.896704	2720.624295	1.236167	0.024407	2.997958
175.388919	2731.643019	1.241172	0.024312	3.003441
175.972517	2742.669571	1.246177	0.024200	3.008932
176.418637	2753.699533	1.251181	0.024113	3.014393
176.752335	2764.707017	1.256186	0.024048	3.019818
177.122703	2775.724293	1.261191	0.023976	3.025242
177.616052	2786.740262	1.266195	0.023880	3.030674
178.273679	2797.755599	1.271200	0.023754	3.036120
178.665599	2808.782094	1.276205	0.023678	3.041522
179.245864	2819.783243	1.281210	0.023566	3.046930
179.672666	2830.814887	1.286214	0.023484	3.052321
180.003734	2841.835488	1.291219	0.023419	3.057683
180.284030	2852.855249	1.296224	0.023363	3.063028
180.582804	2863.900114	1.301228	0.023305	3.068378
181.012524	2874.867608	1.306233	0.023221	3.073701
181.731751	2885.883283	1.311238	0.023084	3.079078
182.107759	2896.921023	1.316243	0.023010	3.084408
182.731495	2907.939396	1.321247	0.022890	3.089754
183.072759	2918.966234	1.326252	0.022824	3.095054
183.544516	2929.973007	1.331257	0.022732	3.100355
183.755093	2940.999466	1.336262	0.022690	3.105619
184.176470	2952.014142	1.341266	0.022608	3.110898
184.545324	2963.035769	1.346271	0.022536	3.116164
184.997728	2974.031918	1.351276	0.022449	3.121420
185.238831	2985.083582	1.356280	0.022401	3.126665
185.616933	2996.090449	1.361285	0.022327	3.131898
186.038909	3007.104543	1.366290	0.022245	3.137132
186.596696	3018.088872	1.371295	0.022138	3.142362
187.052282	3029.136143	1.376299	0.022050	3.147599
187.681418	3040.129958	1.381304	0.021929	3.152825
187.862780	3051.200391	1.386309	0.021892	3.158017
188.333127	3062.173041	1.391314	0.021801	3.163195
188.661842	3073.213689	1.396318	0.021737	3.168376
189.074245	3084.203209	1.401323	0.021657	3.173537
189.523898	3095.244639	1.406328	0.021570	3.178718
189.924403	3106.256812	1.411332	0.021492	3.183870
190.308419	3117.283940	1.416337	0.021417	3.189018
190.733612	3128.284116	1.421342	0.021334	3.194152
191.176972	3139.307318	1.426347	0.021248	3.199289
191.774543	3150.295033	1.431351	0.021134	3.204423
192.243373	3161.362884	1.436356	0.021043	3.209568
192.791187	3172.329290	1.441361	0.020937	3.214669
193.069428	3183.389788	1.446366	0.020882	3.219769
193.491843	3194.377130	1.451370	0.020800	3.224846
193.826394	3205.427505	1.456375	0.020735	3.229932
194.250062	3216.421191	1.461380	0.020653	3.234997
194.591956	3227.452719	1.466384	0.020586	3.240059
195.158233	3238.435055	1.471389	0.020477	3.245121
195.277784	3249.508060	1.476394	0.020452	3.250157
195.759232	3260.480358	1.481399	0.020359	3.255188
196.209709	3271.498382	1.486403	0.020271	3.260227
196.740296	3282.517122	1.491408	0.020169	3.265268
196.967195	3293.575442	1.496413	0.020124	3.270281
197.311140	3304.560447	1.501417	0.020057	3.275267
197.402066	3315.605132	1.506422	0.020037	3.280241
197.893862	3326.586059	1.511427	0.019942	3.285229
198.242500	3337.629994	1.516432	0.019874	3.290220
198.669069	3348.611496	1.521436	0.019791	3.295185
199.074370	3359.653846	1.526441	0.019712	3.300168
199.364583	3370.645189	1.531446	0.019655	3.305105
199.752934	3381.687068	1.536451	0.019579	3.310069
200.228238	3392.686028	1.541455	0.019487	3.315018
200.620972	3403.735931	1.546460	0.019411	3.319972
201.197450	3414.715300	1.551465	0.019300	3.324910
201.572581	3425.753154	1.556469	0.019227	3.329841
201.775804	3436.756759	1.561474	0.019186	3.334728
202.166288	3447.772553	1.566479	0.019110	3.339637
202.595246	3458.791223	1.571484	0.019027	3.344545
202.985819	3469.852975	1.576488	0.018951	3.349459
203.367509	3480.810810	1.581493	0.018877	3.354319
203.562048	3491.864759	1.586498	0.018837	3.359192
203.940920	3502.864472	1.591503	0.018763	3.364056
204.240855	3513.900549	1.596507	0.018704	3.368919
204.634097	3524.871546	1.601512	0.018628	3.373758
204.924463	3535.934144	1.606517	0.018571	3.378617
205.423966	3546.896873	1.611521	0.018474	3.383452
205.655664	3557.963049	1.616526	0.018428	3.388291
205.853561	3568.959035	1.621531	0.018388	3.393090
206.191364	3579.983525	1.626536	0.018322	3.397910
206.683350	3590.983800	1.631540	0.018227	3.402732
206.947382	3602.030552	1.636545	0.018175	3.407540
207.246055	3613.014026	1.641550	0.018116	3.412317
207.534231	3624.056690	1.646555	0.018059	3.417112
207.951766	3635.037774	1.651559	0.017978	3.421890
208.251870	3646.099233	1.656564	0.017919	3.426681
208.598421	3657.094424	1.661569	0.017851	3.431442
208.931743	3668.111077	1.666573	0.017786	3.436204
209.392454	3679.110940	1.671578	0.017697	3.440968
209.643679	3690.165496	1.676583	0.017647	3.445723
210.066876	3701.131641	1.681588	0.017565	3.450455
210.468519	3712.192482	1.686592	0.017487	3.455217
210.762645	3723.183435	1.691597	0.017429	3.459931
210.981075	3734.232577	1.696602	0.017385	3.464654
211.462160	3745.199623	1.701606	0.017292	3.469366
211.688468	3756.252892	1.706611	0.017247	3.474079
212.107047	3767.265573	1.711616	0.017166	3.478790
212.417961	3778.270688	1.716621	0.017105	3.483480
212.813277	3789.300324	1.721625	0.017028	3.488183
213.058229	3800.305675	1.726630	0.016979	3.492852
213.515783	3811.315252	1.731635	0.016890	3.497541
213.574743	3822.341340	1.736640	0.016877	3.502184
213.874519	3833.360207	1.741644	0.016818	3.506846
214.052713	3844.374320	1.746649	0.016782	3.511486
214.454854	3855.368209	1.751654	0.016703	3.516137
214.655290	3866.414795	1.756658	0.016663	3.520781
214.956871	3877.410491	1.761663	0.016604	3.525409
215.529879	3888.444483	1.766668	0.016493	3.530077
216.082047	3899.431041	1.771673	0.016387	3.534717
216.554663	3910.457130	1.776677	0.016296	3.539358
216.930430	3921.480020	1.781682	0.016222	3.543981
217.409011	3932.483044	1.786687	0.016130	3.548601
217.567428	3943.521093	1.791692	0.016097	3.553193
217.962524	3954.534544	1.796696	0.016021	3.557796
218.277370	3965.535154	1.801701	0.015959	3.562378
218.456073	3976.591458	1.806706	0.015923	3.566963
218.692407	3987.553437	1.811710	0.015876	3.571509
219.180952	3998.589969	1.816715	0.015781	3.576107
219.518832	4009.590485	1.821720	0.015715	3.580669
220.016991	4020.630769	1.826725	0.015619	3.585258
220.387918	4031.608580	1.831729	0.015546	3.589802
220.696283	4042.659338	1.836734	0.015486	3.594363
221.243354	4053.662069	1.841739	0.015380	3.598924
221.585860	4064.703357	1.846744	0.015313	3.603473
221.776859	4075.730470	1.851748	0.015275	3.607994
222.082068	4086.690539	1.856753	0.015215	3.612495
222.572703	4097.754047	1.861758	0.015120	3.617051
222.920389	4108.785479	1.866762	0.015052	3.621574
223.308670	4119.811760	1.871767	0.014977	3.626093
223.480493	4130.851094	1.876772	0.014942	3.630588
223.706803	4141.843533	1.881777	0.014896	3.635065
224.058660	4152.851204	1.886781	0.014828	3.639556
224.540052	4163.856274	1.891786	0.014735	3.644054
224.805733	4174.899911	1.896791	0.014682	3.648538
224.924128	4185.922650	1.901795	0.014657	3.652994
225.383325	4196.927218	1.906800	0.014568	3.657472
225.674213	4207.929448	1.911805	0.014511	3.661926
225.916472	4218.971365	1.916810	0.014463	3.666386
226.209347	4229.940410	1.921814	0.014405	3.670816
226.544647	4241.004623	1.926819	0.014339	3.675283
226.877200	4251.993524	1.931824	0.014274	3.679714
227.011893	4263.018142	1.936829	0.014246	3.684134
227.467893	4274.002484	1.941833	0.014158	3.688566
227.864564	4285.063768	1.946838	0.014081	3.693016
228.166950	4296.065315	1.951843	0.014021	3.697428
228.442724	4307.064437	1.956847	0.013967	3.701831
228.745721	4318.080809	1.961852	0.013907	3.706238
228.958719	4329.113533	1.966857	0.013865	3.710637
229.409192	4340.095374	1.971862	0.013777	3.715035
229.787048	4351.151336	1.976866	0.013704	3.719449
230.304077	4362.130889	1.981871	0.013604	3.723842
230.602553	4373.175015	1.986876	0.013545	3.728233
230.726286	4384.181061	1.991881	0.013519	3.732586
231.383366	4395.207153	1.996885	0.013393	3.736997
231.523984	4406.203309	2.001890	0.013364	3.741337
231.880027	4417.250525	2.006895	0.013295	3.745715
