Wed Nov 23 19:44:20 2022

Number of Points = 2200
Depth (nm)	Load (µN)	Time (s)	Depth (V)	Load (V)
-1.943209	1.549098	0.000000	0.021944	0.996396
0.000000	7.546612	0.005005	0.021578	1.006277
1.520025	16.726594	0.010009	0.021290	1.020438
3.045872	27.356885	0.015014	0.021001	1.036470
3.995457	38.512980	0.020019	0.020820	1.052694
5.139051	49.627269	0.025024	0.020603	1.068713
6.812287	60.633141	0.030028	0.020286	1.084612
8.661366	71.709870	0.035033	0.019937	1.100461
9.907876	83.006813	0.040038	0.019700	1.116082
11.107052	94.130915	0.045043	0.019472	1.131239
12.582265	105.241823	0.050047	0.019193	1.146307
13.542876	116.445007	0.055052	0.019009	1.161056
14.721456	127.554515	0.060057	0.018786	1.175603
15.634325	138.701951	0.065061	0.018612	1.189897
16.895800	149.759564	0.070066	0.018372	1.204067
17.783401	160.935855	0.075071	0.018203	1.218050
18.792074	172.021363	0.080076	0.018011	1.231817
19.773197	183.136741	0.085080	0.017824	1.245455
20.831226	194.206962	0.090085	0.017623	1.258925
21.448013	205.378926	0.095090	0.017504	1.272182
22.350339	216.444166	0.100094	0.017332	1.285300
23.294620	227.522247	0.105099	0.017152	1.298316
24.221583	238.632736	0.110104	0.016975	1.311232
25.118480	249.694492	0.115109	0.016804	1.323955
26.059187	260.757615	0.120113	0.016625	1.336575
26.897072	271.851962	0.125118	0.016465	1.349070
28.032982	282.859193	0.130123	0.016249	1.361472
29.322013	293.922176	0.135128	0.016005	1.373881
30.319362	305.073501	0.140132	0.015815	1.386160
31.133753	316.162308	0.145137	0.015659	1.398195
32.177625	327.175272	0.150142	0.015461	1.410134
33.286417	338.253479	0.155146	0.015250	1.422064
34.211205	349.357426	0.160151	0.015074	1.433852
35.094210	360.436339	0.165156	0.014905	1.445503
35.782318	371.520662	0.170161	0.014773	1.456994
36.534310	382.608857	0.175165	0.014629	1.468422
37.499092	393.597214	0.180170	0.014446	1.479739
38.227220	404.713560	0.185175	0.014306	1.491011
39.498066	415.658750	0.190180	0.014065	1.502221
40.611852	426.779121	0.195184	0.013853	1.513464
41.417069	437.871185	0.200189	0.013700	1.524488
42.571160	448.871501	0.205194	0.013480	1.535465
43.642060	459.954673	0.210198	0.013277	1.546414
44.437996	471.051546	0.215203	0.013125	1.557205
45.468079	482.062070	0.220208	0.012929	1.567919
46.314713	493.161373	0.225213	0.012767	1.578582
47.221470	504.168077	0.230217	0.012594	1.589106
48.156635	515.248952	0.235222	0.012416	1.599639
49.199834	526.269694	0.240227	0.012217	1.610082
50.082468	537.373401	0.245232	0.012049	1.620481
50.851218	548.410328	0.250236	0.011902	1.630716
51.568099	559.480260	0.255241	0.011765	1.640900
52.562747	570.471205	0.260246	0.011575	1.651038
53.403526	581.574402	0.265250	0.011415	1.661165
54.102184	592.604585	0.270255	0.011281	1.671122
54.920237	603.646670	0.275260	0.011125	1.681067
56.260223	614.601669	0.280265	0.010871	1.691037
57.031547	625.755992	0.285269	0.010723	1.700947
58.121073	636.746943	0.290274	0.010516	1.710756
58.827883	647.844093	0.295279	0.010381	1.720483
59.664362	658.876454	0.300283	0.010221	1.730139
60.499775	669.918603	0.305288	0.010061	1.739749
61.333396	680.929787	0.310293	0.009902	1.749280
62.241961	692.019754	0.315298	0.009729	1.758846
63.011016	703.047404	0.320302	0.009582	1.768267
63.760325	714.104501	0.325307	0.009439	1.777657
64.373861	725.154378	0.330312	0.009321	1.786951
65.129671	736.166108	0.335317	0.009176	1.796207
66.093028	747.180196	0.340321	0.008993	1.805477
66.909776	758.246506	0.345326	0.008837	1.814699
67.838463	769.274411	0.350331	0.008660	1.823875
68.403996	780.340514	0.355335	0.008551	1.832933
69.369035	791.357637	0.360340	0.008367	1.842019
70.202561	802.384080	0.365345	0.008208	1.851030
71.114073	813.440003	0.370350	0.008034	1.860043
71.819930	824.486137	0.375354	0.007899	1.868947
72.658291	835.505730	0.380359	0.007739	1.877824
73.310807	846.574837	0.385364	0.007614	1.886648
74.257436	857.577410	0.390369	0.007434	1.895457
74.888118	868.626934	0.395373	0.007312	1.904177
75.937934	879.636951	0.400378	0.007113	1.912939
76.521736	890.720174	0.405383	0.007000	1.921592
77.494519	901.703145	0.410387	0.006815	1.930233
78.026248	912.809219	0.415392	0.006713	1.938812
78.907374	923.777674	0.420397	0.006545	1.947340
79.759516	934.815087	0.425402	0.006382	1.955875
80.471855	945.871829	0.430406	0.006246	1.964352
81.306093	956.885892	0.435411	0.006086	1.972790
82.325160	967.900881	0.440416	0.005892	1.981241
82.931307	978.982361	0.445421	0.005776	1.989599
83.864374	989.990800	0.450425	0.005598	1.997951
84.311779	1001.074250	0.455430	0.005511	2.006201
84.888534	1012.080390	0.460435	0.005400	2.014392
85.493133	1023.130257	0.465439	0.005284	2.022589
86.400974	1034.113421	0.470444	0.005111	2.030780
87.292029	1045.152206	0.475449	0.004941	2.038973
88.159896	1056.192302	0.480454	0.004776	2.047128
88.851765	1067.258989	0.485458	0.004643	2.055227
89.483630	1078.275526	0.490463	0.004522	2.063243
90.297667	1089.265936	0.495468	0.004366	2.071253
90.988646	1100.362197	0.500472	0.004234	2.079278
91.706975	1111.342123	0.505477	0.004096	2.087195
92.507432	1122.410788	0.510482	0.003944	2.095165
92.885575	1133.457974	0.515487	0.003870	2.102988
93.509011	1144.454751	0.520491	0.003750	2.110806
94.051646	1155.491943	0.525496	0.003646	2.118603
94.526103	1166.544310	0.530501	0.003554	2.126366
94.977636	1177.574565	0.535506	0.003466	2.134080
95.758274	1188.539106	0.540510	0.003317	2.141797
96.273087	1199.627485	0.545515	0.003218	2.149510
97.313799	1210.576840	0.550520	0.003020	2.157221
98.102938	1221.642561	0.555524	0.002869	2.164926
98.791876	1232.706869	0.560529	0.002737	2.172579
99.144779	1243.742022	0.565534	0.002668	2.180108
99.841770	1254.727666	0.570539	0.002535	2.187657
100.342658	1265.800246	0.575543	0.002438	2.195193
101.017290	1276.778774	0.580548	0.002309	2.202680
101.673091	1287.826146	0.585553	0.002183	2.210182
102.563910	1298.814737	0.590558	0.002013	2.217673
103.215414	1309.884685	0.595562	0.001888	2.225138
103.841522	1320.905165	0.600567	0.001768	2.232540
104.337835	1331.968560	0.605572	0.001672	2.239917
104.829339	1342.968931	0.610576	0.001577	2.247227
105.339049	1354.025744	0.615581	0.001478	2.254554
105.766240	1365.028053	0.620586	0.001396	2.261804
106.389987	1376.013171	0.625591	0.001276	2.269061
107.399125	1387.030031	0.630595	0.001084	2.276400
107.670825	1398.134342	0.635600	0.001030	2.283612
108.278951	1409.116916	0.640605	0.000913	2.290795
108.807256	1420.145468	0.645610	0.000811	2.297967
109.451148	1431.177467	0.650614	0.000688	2.305145
109.813555	1442.203442	0.655619	0.000617	2.312236
110.453365	1453.238168	0.660624	0.000494	2.319369
110.940034	1464.228241	0.665628	0.000400	2.326420
111.752775	1475.262748	0.670633	0.000245	2.333545
112.260654	1486.310280	0.675638	0.000147	2.340594
112.705782	1497.328641	0.680643	0.000061	2.347589
113.265276	1508.353226	0.685647	-0.000047	2.354591
113.882643	1519.361250	0.690652	-0.000166	2.361574
114.416456	1530.395463	0.695657	-0.000268	2.368535
115.173914	1541.407549	0.700661	-0.000413	2.375508
115.615971	1552.445078	0.705666	-0.000499	2.382411
116.314060	1563.460107	0.710671	-0.000633	2.389333
116.809906	1574.499904	0.715676	-0.000728	2.396208
117.350539	1585.527808	0.720680	-0.000833	2.403065
117.849642	1596.540224	0.725685	-0.000929	2.409885
118.522488	1607.566568	0.730690	-0.001058	2.416729
118.936021	1618.594135	0.735695	-0.001138	2.423502
119.393805	1629.620847	0.740699	-0.001227	2.430264
119.970219	1640.631542	0.745704	-0.001338	2.437022
120.566485	1651.650284	0.750709	-0.001452	2.443769
121.070919	1662.680922	0.755713	-0.001550	2.450486
121.792211	1673.685810	0.760718	-0.001688	2.457212
122.390220	1684.725518	0.765723	-0.001803	2.463916
122.724537	1695.781102	0.770728	-0.001868	2.470560
122.977044	1706.787743	0.775732	-0.001918	2.477141
123.447616	1717.818230	0.780737	-0.002009	2.483761
124.064638	1728.797284	0.785742	-0.002128	2.490361
124.687875	1739.853992	0.790747	-0.002248	2.496990
125.318670	1750.858680	0.795751	-0.002369	2.503572
125.877868	1761.878854	0.800756	-0.002476	2.510132
126.327334	1772.912074	0.805761	-0.002563	2.516662
126.903696	1783.948239	0.810765	-0.002674	2.523200
127.311123	1794.948045	0.815770	-0.002754	2.529668
127.777934	1805.981921	0.820775	-0.002844	2.536151
128.234581	1817.013646	0.825780	-0.002932	2.542613
128.746470	1828.021828	0.830784	-0.003031	2.549056
129.120443	1839.067208	0.835789	-0.003104	2.555479
129.715971	1850.051787	0.840794	-0.003218	2.561891
130.321759	1861.081901	0.845799	-0.003335	2.568315
130.828440	1872.168262	0.850803	-0.003433	2.574736
131.067971	1883.162205	0.855808	-0.003480	2.581040
131.531297	1894.158261	0.860813	-0.003570	2.587370
131.997332	1905.172468	0.865817	-0.003660	2.593696
132.653319	1916.175152	0.870822	-0.003786	2.600034
132.937981	1927.223637	0.875827	-0.003842	2.606315
133.614585	1938.249307	0.880832	-0.003972	2.612639
133.822238	1949.281831	0.885836	-0.004013	2.618867
134.389087	1960.254627	0.890841	-0.004123	2.625111
134.699459	1971.323588	0.895846	-0.004184	2.631347
135.300495	1982.320368	0.900850	-0.004299	2.637581
135.698583	1993.337496	0.905855	-0.004376	2.643775
136.348475	2004.363125	0.910860	-0.004501	2.650003
136.789273	2015.389687	0.915865	-0.004587	2.656180
137.368832	2026.383972	0.920869	-0.004698	2.662350
137.643072	2037.447536	0.925874	-0.004752	2.668490
138.415848	2048.393604	0.930879	-0.004900	2.674637
138.832395	2059.456530	0.935884	-0.004981	2.680773
139.297081	2070.480954	0.940888	-0.005071	2.686882
139.751969	2081.478033	0.945893	-0.005159	2.692960
140.184237	2092.526652	0.950898	-0.005243	2.699049
140.448351	2103.518646	0.955902	-0.005295	2.705064
140.992238	2114.555617	0.960907	-0.005400	2.711138
141.332679	2125.570606	0.965912	-0.005466	2.717151
141.867556	2136.576435	0.970917	-0.005569	2.723180
142.344035	2147.615845	0.975921	-0.005662	2.729203
142.900780	2158.625925	0.980926	-0.005769	2.735210
143.394487	2169.627067	0.985931	-0.005864	2.741189
144.086837	2180.661833	0.990936	-0.005997	2.747205
144.487840	2191.697613	0.995940	-0.006075	2.753160
144.843984	2202.707275	1.000945	-0.006144	2.759081
145.003558	2213.757843	1.005950	-0.006177	2.764979
145.522615	2224.754597	1.010954	-0.006277	2.770894
146.119596	2235.735800	1.015959	-0.006392	2.776802
146.700584	2246.792310	1.020964	-0.006504	2.782733
147.035225	2257.802206	1.025969	-0.006569	2.788587
147.497996	2268.829633	1.030973	-0.006659	2.794459
147.954450	2279.857175	1.035978	-0.006747	2.800318
148.532137	2290.850974	1.040983	-0.006858	2.806166
148.941626	2301.914092	1.045988	-0.006938	2.812011
149.387603	2312.884477	1.050992	-0.007024	2.817801
149.815949	2323.930306	1.055997	-0.007107	2.823615
150.403322	2334.925476	1.061002	-0.007220	2.829417
150.947058	2345.965884	1.066006	-0.007325	2.835223
151.370895	2356.980815	1.071011	-0.007407	2.840984
151.720093	2368.011393	1.076016	-0.007475	2.846730
151.983953	2379.048533	1.081021	-0.007528	2.852455
152.377532	2390.026799	1.086025	-0.007604	2.858158
152.945784	2401.037031	1.091030	-0.007714	2.863893
153.289684	2412.095110	1.096035	-0.007781	2.869606
153.784751	2423.100390	1.101039	-0.007877	2.875304
154.183381	2434.117258	1.106044	-0.007954	2.880982
154.751897	2445.153946	1.111049	-0.008063	2.886685
155.129644	2456.173769	1.116054	-0.008137	2.892338
155.559741	2467.163788	1.121058	-0.008220	2.897973
155.786573	2478.201471	1.126063	-0.008266	2.903590
156.250108	2489.216885	1.131068	-0.008355	2.909221
156.761272	2500.207995	1.136073	-0.008454	2.914837
157.293491	2511.245551	1.141077	-0.008557	2.920467
157.671532	2522.269848	1.146082	-0.008630	2.926057
157.970995	2533.302172	1.151087	-0.008689	2.931628
158.436959	2544.288892	1.156091	-0.008779	2.937191
159.014545	2555.303119	1.161096	-0.008891	2.942773
159.418496	2566.343997	1.166101	-0.008969	2.948333
159.904669	2577.360473	1.171106	-0.009063	2.953881
160.255567	2588.390747	1.176110	-0.009132	2.959406
160.870538	2599.374646	1.181115	-0.009250	2.964937
161.249631	2610.431563	1.186120	-0.009324	2.970458
161.718506	2621.431024	1.191125	-0.009414	2.975954
162.134518	2632.445748	1.196129	-0.009495	2.981439
162.621749	2643.459098	1.201134	-0.009589	2.986925
163.050854	2654.498673	1.206139	-0.009673	2.992404
163.370295	2665.519259	1.211143	-0.009735	2.997847
163.773842	2676.508710	1.216148	-0.009814	3.003278
164.269186	2687.557512	1.221153	-0.009909	3.008741
164.799230	2698.544023	1.226158	-0.010011	3.014169
165.187248	2709.594849	1.231162	-0.010087	3.019598
165.753059	2720.565671	1.236167	-0.010196	3.025003
166.247334	2731.633663	1.241172	-0.010291	3.030436
166.348235	2742.654967	1.246177	-0.010313	3.035779
166.892933	2753.653092	1.251181	-0.010418	3.041166
167.188736	2764.678223	1.256186	-0.010476	3.046520
167.625866	2775.691944	1.261191	-0.010561	3.051880
167.933114	2786.710213	1.266195	-0.010621	3.057213
168.304601	2797.716538	1.271200	-0.010694	3.062541
168.767721	2808.748480	1.276205	-0.010783	3.067885
169.330152	2819.733997	1.281210	-0.010892	3.073211
169.838565	2830.773586	1.286214	-0.010990	3.078546
170.356687	2841.791919	1.291219	-0.011090	3.083862
170.814143	2852.813616	1.296224	-0.011178	3.089163
171.334030	2863.806601	1.301228	-0.011279	3.094449
171.553376	2874.865639	1.306233	-0.011322	3.099716
172.110901	2885.846400	1.311238	-0.011430	3.104984
172.580132	2896.891030	1.316243	-0.011521	3.110260
172.891899	2907.900548	1.321247	-0.011582	3.115489
173.352929	2918.920120	1.326252	-0.011671	3.120735
173.812882	2929.943072	1.331257	-0.011760	3.125973
174.013041	2940.978761	1.336262	-0.011800	3.131172
174.374532	2951.955538	1.341266	-0.011871	3.136358
174.685358	2962.998522	1.346271	-0.011932	3.141558
175.071128	2974.005989	1.351276	-0.012007	3.146744
175.494095	2985.018439	1.356280	-0.012089	3.151928
175.753604	2996.054972	1.361285	-0.012141	3.157093
176.531422	3007.041754	1.366290	-0.012289	3.162296
176.982097	3018.066829	1.371295	-0.012377	3.167465
177.492035	3029.081602	1.376299	-0.012475	3.172627
178.003858	3040.100093	1.381304	-0.012574	3.177784
178.347603	3051.133119	1.386309	-0.012641	3.182916
178.792026	3062.163834	1.391314	-0.012727	3.188052
179.132911	3073.147707	1.396318	-0.012794	3.193144
179.722949	3084.169722	1.401323	-0.012907	3.198279
180.228015	3095.191747	1.406328	-0.013005	3.203394
180.522361	3106.218529	1.411332	-0.013063	3.208475
180.826546	3117.245189	1.416337	-0.013122	3.213549
181.322795	3128.231276	1.421342	-0.013218	3.218622
181.889718	3139.265585	1.426347	-0.013327	3.223718
182.234887	3150.283645	1.431351	-0.013395	3.228770
182.457798	3161.320841	1.436356	-0.013439	3.233806
182.739712	3172.311558	1.441361	-0.013495	3.238821
183.075120	3183.338741	1.446366	-0.013561	3.243851
183.543178	3194.356299	1.451370	-0.013651	3.248886
183.815659	3205.379021	1.456375	-0.013705	3.253891
184.240977	3216.362619	1.461380	-0.013788	3.258890
184.695132	3227.410860	1.466384	-0.013876	3.263914
185.083220	3238.415446	1.471389	-0.013951	3.268902
185.602794	3249.417030	1.476394	-0.014051	3.273898
186.242874	3260.436408	1.481399	-0.014174	3.278909
186.556066	3271.489033	1.486403	-0.014236	3.283886
186.939566	3282.498045	1.491408	-0.014310	3.288845
187.205807	3293.516095	1.496413	-0.014363	3.293785
187.653772	3304.502007	1.501417	-0.014450	3.298726
188.011946	3315.534613	1.506422	-0.014520	3.303670
188.407954	3326.561368	1.511427	-0.014597	3.308608
188.918543	3337.560456	1.516432	-0.014695	3.313541
189.128924	3348.591626	1.521436	-0.014738	3.318443
189.477987	3359.608511	1.526441	-0.014806	3.323348
189.872526	3370.635527	1.531446	-0.014883	3.328257
190.170753	3381.636159	1.536451	-0.014941	3.333134
190.597885	3392.644512	1.541455	-0.015024	3.338024
190.952324	3403.665734	1.546460	-0.015093	3.342903
191.340328	3414.694658	1.551465	-0.015169	3.347782
191.787760	3425.700460	1.556469	-0.015256	3.352652
192.230221	3436.700497	1.561474	-0.015341	3.357511
192.686916	3447.745139	1.566479	-0.015430	3.362384
193.100560	3458.768845	1.571484	-0.015510	3.367235
193.386268	3469.765726	1.576488	-0.015566	3.372053
193.908183	3480.761329	1.581493	-0.015667	3.376891
194.442047	3491.793644	1.586498	-0.015770	3.381740
195.208542	3502.790954	1.591503	-0.015917	3.386595
195.453231	3513.858834	1.596507	-0.015965	3.391410
195.861311	3524.834121	1.601512	-0.016045	3.396198
196.218356	3535.869956	1.606517	-0.016114	3.400999
196.795050	3546.868526	1.611521	-0.016225	3.405803
197.257835	3557.902532	1.616526	-0.016315	3.410602
197.731024	3568.903061	1.621531	-0.016406	3.415381
198.048962	3579.934880	1.626536	-0.016469	3.420149
198.399975	3590.956437	1.631540	-0.016537	3.424909
198.894131	3601.977377	1.636545	-0.016633	3.429679
199.321380	3612.965335	1.641550	-0.016716	3.434420
199.762410	3624.010509	1.646555	-0.016801	3.439181
200.072338	3635.015171	1.651559	-0.016862	3.443902
200.460111	3646.071063	1.656564	-0.016937	3.448648
200.557786	3657.025333	1.661569	-0.016958	3.453310
201.005419	3668.080845	1.666573	-0.017045	3.458050
201.349230	3679.048439	1.671578	-0.017112	3.462733
201.653684	3690.118132	1.676583	-0.017172	3.467449
202.034131	3701.106847	1.681588	-0.017246	3.472133
202.411310	3712.133884	1.686592	-0.017320	3.476826
202.893349	3723.121476	1.691597	-0.017413	3.481509
203.428344	3734.178167	1.696602	-0.017516	3.486220
203.759270	3745.158828	1.701606	-0.017581	3.490869
204.060150	3756.203618	1.706611	-0.017640	3.495536
204.330710	3767.184452	1.711616	-0.017694	3.500166
204.774882	3778.241799	1.716621	-0.017780	3.504841
205.235116	3789.244138	1.721625	-0.017869	3.509489
205.770373	3800.260557	1.726630	-0.017972	3.514145
206.352327	3811.266648	1.731635	-0.018084	3.518796
206.702000	3822.294584	1.736640	-0.018152	3.523424
206.902622	3833.323628	1.741644	-0.018193	3.528029
207.120719	3844.339195	1.746649	-0.018236	3.532624
207.557806	3855.328890	1.751654	-0.018321	3.537227
207.951012	3866.356492	1.756658	-0.018398	3.541835
208.287148	3877.377951	1.761663	-0.018463	3.546427
208.526040	3888.386507	1.766668	-0.018511	3.550998
208.851120	3899.403669	1.771673	-0.018575	3.555576
209.282847	3910.411931	1.776677	-0.018658	3.560156
209.702024	3921.429024	1.781682	-0.018740	3.564732
210.083812	3932.469944	1.786687	-0.018814	3.569308
210.357923	3943.464394	1.791692	-0.018868	3.573847
210.830396	3954.480151	1.796696	-0.018960	3.578411
211.155295	3965.492646	1.801701	-0.019023	3.582951
211.774914	3976.517800	1.806706	-0.019142	3.587523
211.964979	3987.518474	1.811710	-0.019181	3.592032
212.363913	3998.544085	1.816715	-0.019258	3.596568
212.562089	4009.585318	1.821720	-0.019298	3.601083
212.897341	4020.577944	1.826725	-0.019364	3.605588
213.389821	4031.572795	1.831729	-0.019459	3.610104
213.773585	4042.603825	1.836734	-0.019534	3.614618
214.140003	4053.619653	1.841739	-0.019605	3.619118
214.514396	4064.649726	1.846744	-0.019678	3.623619
214.823587	4075.665497	1.851748	-0.019739	3.628102
215.143100	4086.680823	1.856753	-0.019802	3.632580
215.512434	4097.698407	1.861758	-0.019874	3.637058
216.073576	4108.745233	1.866762	-0.019982	3.641563
216.326622	4119.769382	1.871767	-0.020032	3.646021
216.518813	4130.789825	1.876772	-0.020071	3.650465
216.852672	4141.793588	1.881777	-0.020136	3.654912
217.125491	4152.825544	1.886781	-0.020190	3.659358
217.464681	4163.808424	1.891786	-0.020256	3.663787
217.961677	4174.863585	1.896791	-0.020352	3.668255
218.353158	4185.863237	1.901795	-0.020429	3.672684
218.872724	4196.870418	1.906800	-0.020529	3.677125
219.090496	4207.881609	1.911805	-0.020572	3.681530
219.560282	4218.914993	1.916810	-0.020663	3.685965
220.033106	4229.881824	1.921814	-0.020755	3.690368
220.463910	4240.944023	1.926819	-0.020838	3.694799
220.568603	4251.947862	1.931824	-0.020861	3.699169
221.038313	4262.979608	1.936829	-0.020951	3.703581
221.341849	4273.981143	1.941833	-0.021011	3.707960
221.674708	4285.023956	1.946838	-0.021076	3.712352
221.892616	4296.010890	1.951843	-0.021120	3.716705
222.296543	4307.030156	1.956847	-0.021198	3.721085
222.642479	4318.047578	1.961852	-0.021266	3.725453
222.921329	4329.046266	1.966857	-0.021321	3.729802
223.227544	4340.066097	1.971862	-0.021381	3.734156
223.757188	4351.080505	1.976866	-0.021483	3.738526
224.078649	4362.111610	1.981871	-0.021546	3.742876
