Wed Nov 23 17:12:02 2022

Number of Points = 2200
Depth (nm)	Load (µN)	Time (s)	Depth (V)	Load (V)
-0.441626	1.452703	0.000000	0.058326	0.883096
0.000000	7.336865	0.005005	0.058242	0.893177
0.573115	16.141252	0.010009	0.058132	0.907998
1.360293	26.560508	0.015014	0.057982	0.925296
2.062537	37.532427	0.020019	0.057847	0.943094
2.898285	48.655787	0.025024	0.057688	0.960871
3.649453	59.846293	0.030028	0.057544	0.978378
4.191224	71.087423	0.035033	0.057440	0.995537
4.676292	82.272009	0.040038	0.057346	1.012291
5.193755	93.453926	0.045043	0.057246	1.028786
5.664808	104.620804	0.050047	0.057155	1.044974
6.041703	115.803964	0.055052	0.057081	1.060889
6.413496	126.952500	0.060057	0.057009	1.076518
6.813157	138.102146	0.065061	0.056931	1.091939
6.936133	149.288171	0.070066	0.056905	1.107057
7.243223	160.393676	0.075071	0.056845	1.121954
7.593234	171.500616	0.080076	0.056776	1.136678
15.034073	180.957408	0.085080	0.055378	1.152444
17.479643	193.091816	0.090085	0.054916	1.169057
19.257604	204.436173	0.095090	0.054580	1.184143
20.533121	215.698442	0.100094	0.054337	1.198709
22.124249	226.799668	0.105099	0.054036	1.213044
23.495706	237.935800	0.110104	0.053776	1.227156
24.920938	249.042246	0.115109	0.053506	1.241094
26.419682	260.116139	0.120113	0.053222	1.254870
27.734312	271.269726	0.125118	0.052972	1.268510
28.342980	282.506356	0.130123	0.052855	1.281802
29.794138	293.430581	0.135128	0.052580	1.294951
30.776707	304.661665	0.140132	0.052393	1.308121
31.755883	315.724467	0.145137	0.052207	1.320970
32.322751	326.860057	0.150142	0.052098	1.333608
33.503661	337.828978	0.155146	0.051873	1.346190
34.192212	348.991813	0.160151	0.051741	1.358670
35.421934	359.968455	0.165156	0.051508	1.371048
36.840405	371.037481	0.170161	0.051239	1.383486
37.927198	382.148410	0.175165	0.051032	1.395730
38.868559	393.243241	0.180170	0.050853	1.407794
39.904193	404.312716	0.185175	0.050656	1.419764
40.782998	415.372406	0.190180	0.050488	1.431564
41.912268	426.466494	0.195184	0.050274	1.443396
42.867744	437.503268	0.200189	0.050092	1.455009
44.145558	448.560938	0.205194	0.049849	1.466667
44.764872	459.689182	0.210198	0.049730	1.478066
45.737355	470.721752	0.215203	0.049545	1.489409
47.039848	481.714795	0.220208	0.049298	1.500743
48.195404	492.806646	0.225213	0.049078	1.512037
48.904226	503.935853	0.230217	0.048943	1.523127
49.898042	514.956805	0.235222	0.048753	1.534130
50.866761	526.004957	0.240227	0.048569	1.545072
51.903732	537.085896	0.245232	0.048372	1.555991
53.072730	548.058369	0.250236	0.048149	1.566776
53.897184	559.229293	0.255241	0.047992	1.577556
54.977419	570.188310	0.260246	0.047787	1.588151
55.955200	581.304051	0.265250	0.047600	1.598786
56.702822	592.325442	0.270255	0.047457	1.609189
57.880612	603.412151	0.275260	0.047234	1.619723
58.773954	614.449405	0.280265	0.047063	1.630052
59.812472	625.460736	0.285269	0.046866	1.640339
60.592573	636.554080	0.290274	0.046717	1.650552
61.531794	647.635599	0.295279	0.046538	1.660742
62.497429	658.597472	0.300283	0.046354	1.670772
63.345243	669.718610	0.305288	0.046192	1.680845
64.230736	680.733904	0.310293	0.046023	1.690776
65.348322	691.757414	0.315298	0.045810	1.700728
66.298045	702.819469	0.320302	0.045630	1.710603
67.347113	713.873680	0.325307	0.045430	1.720444
67.923515	724.955276	0.330312	0.045319	1.730110
68.876253	735.978760	0.335317	0.045138	1.739785
69.426285	747.047075	0.340321	0.045032	1.749324
70.128860	758.083009	0.345326	0.044897	1.758829
70.844993	769.109401	0.350331	0.044760	1.768278
71.940231	780.125760	0.355335	0.044552	1.777780
72.665017	791.193653	0.360340	0.044413	1.787165
73.496366	802.222266	0.365345	0.044254	1.796500
73.978657	813.324332	0.370350	0.044161	1.805745
75.002494	824.271354	0.375354	0.043966	1.814972
75.987097	835.300181	0.380359	0.043779	1.824207
76.674226	846.437641	0.385364	0.043647	1.833398
77.215527	857.444253	0.390369	0.043543	1.842397
77.931009	868.510050	0.395373	0.043406	1.851448
78.571049	879.515156	0.400378	0.043283	1.860386
79.521899	890.511049	0.405383	0.043102	1.869359
80.365761	901.573121	0.410387	0.042941	1.878312
81.292472	912.599045	0.415392	0.042764	1.887216
81.847387	923.690833	0.420397	0.042657	1.896028
82.412544	934.724460	0.425402	0.042548	1.904757
83.057870	945.742897	0.430406	0.042425	1.913455
83.762669	956.767901	0.435411	0.042290	1.922135
84.650662	967.780125	0.440416	0.042120	1.930814
85.254121	978.886384	0.445421	0.042004	1.939451
85.787891	989.866702	0.450425	0.041901	1.947935
86.616200	1000.894170	0.455430	0.041743	1.956495
87.228010	1011.956491	0.460435	0.041626	1.964987
88.070878	1022.964142	0.465439	0.041465	1.973461
88.687395	1034.024716	0.470444	0.041346	1.981880
89.397353	1045.041861	0.475449	0.041210	1.990254
90.155667	1056.076925	0.480454	0.041065	1.998619
90.949628	1067.128224	0.485458	0.040914	2.006969
91.497921	1078.155837	0.490463	0.040808	2.015205
92.461275	1089.151971	0.495468	0.040625	2.023489
92.956762	1100.242091	0.500472	0.040529	2.031690
94.055029	1111.188965	0.505477	0.040320	2.039904
94.502950	1122.311977	0.510482	0.040233	2.048050
95.123146	1133.343106	0.515487	0.040114	2.056141
95.737383	1144.320148	0.520491	0.039996	2.064159
96.567552	1155.356574	0.525496	0.039838	2.072241
97.124456	1166.427797	0.530501	0.039731	2.080250
97.479561	1177.486114	0.535506	0.039661	2.088170
98.186849	1188.457808	0.540510	0.039526	2.096083
99.007023	1199.463853	0.545515	0.039369	2.104018
99.588258	1210.527686	0.550520	0.039257	2.111906
100.402421	1221.547961	0.555524	0.039102	2.119789
100.726885	1232.609147	0.560529	0.039038	2.127555
101.496730	1243.613707	0.565534	0.038891	2.135359
101.827107	1254.666023	0.570539	0.038826	2.143064
102.858857	1265.615091	0.575543	0.038630	2.150834
103.539763	1276.700655	0.580548	0.038499	2.158587
104.049369	1287.759618	0.585553	0.038401	2.166255
104.464849	1298.790804	0.590558	0.038320	2.173854
105.101614	1309.765982	0.595562	0.038198	2.181440
105.767931	1320.815897	0.600567	0.038070	2.189057
106.374781	1331.834522	0.605572	0.037954	2.196612
106.771388	1342.914158	0.610576	0.037877	2.204135
107.374173	1353.900881	0.615581	0.037761	2.211616
107.664550	1364.954829	0.620586	0.037704	2.219047
108.421715	1375.915869	0.625591	0.037559	2.226495
109.177540	1386.965704	0.630595	0.037414	2.233976
109.833968	1398.022580	0.635600	0.037288	2.241415
110.441999	1409.013470	0.640605	0.037172	2.248775
111.098223	1420.087291	0.645610	0.037046	2.256176
111.608995	1431.060136	0.650614	0.036947	2.263454
112.681495	1442.059297	0.655619	0.036743	2.270849
113.226854	1453.152721	0.660624	0.036638	2.278165
113.739506	1464.168455	0.665628	0.036539	2.285401
114.136035	1475.218977	0.670633	0.036462	2.292611
114.690704	1486.211566	0.675638	0.036355	2.299796
115.243683	1497.233425	0.680643	0.036249	2.306976
116.043170	1508.264233	0.685647	0.036096	2.314191
116.361100	1519.291927	0.690652	0.036034	2.321280
117.210792	1530.299926	0.695657	0.035871	2.328447
117.610306	1541.373968	0.700661	0.035794	2.335539
118.247577	1552.339958	0.705666	0.035671	2.342591
118.861296	1563.383372	0.710671	0.035554	2.349665
119.298760	1574.442185	0.715676	0.035469	2.356690
119.765276	1585.451572	0.720680	0.035378	2.363670
120.168298	1596.486915	0.725685	0.035300	2.370633
120.701472	1607.495973	0.730690	0.035197	2.377585
121.192353	1618.530622	0.735695	0.035102	2.384523
121.498042	1629.555572	0.740699	0.035042	2.391398
122.433903	1640.522941	0.745704	0.034864	2.398346
122.795901	1651.608025	0.750709	0.034793	2.405229
123.242480	1662.625120	0.755713	0.034707	2.412068
123.828442	1673.632944	0.760718	0.034594	2.418910
124.254563	1684.668123	0.765723	0.034512	2.425716
124.723645	1695.673240	0.770728	0.034421	2.432494
125.192331	1706.742417	0.775732	0.034330	2.439292
125.623833	1717.708894	0.780737	0.034246	2.446001
126.458641	1728.736531	0.785742	0.034087	2.452809
126.853270	1739.769090	0.790747	0.034010	2.459513
127.520977	1750.789797	0.795751	0.033882	2.466245
127.894859	1761.842592	0.800756	0.033809	2.472921
128.426674	1772.846995	0.805761	0.033707	2.479581
128.902296	1783.870889	0.810765	0.033615	2.486223
129.606411	1794.882193	0.815770	0.033480	2.492884
130.026341	1805.929982	0.820775	0.033398	2.499494
130.729105	1816.902142	0.825780	0.033264	2.506096
131.196486	1827.984183	0.830784	0.033173	2.512700
131.726309	1838.961696	0.835789	0.033071	2.519237
132.051022	1850.030194	0.840794	0.033008	2.525771
132.676680	1861.020400	0.845799	0.032888	2.532300
133.148807	1872.043090	0.850803	0.032796	2.538801
133.669602	1883.064424	0.855808	0.032696	2.545295
134.024871	1894.117099	0.860813	0.032626	2.551758
134.437418	1905.144348	0.865817	0.032546	2.558201
134.897623	1916.119740	0.870822	0.032457	2.564607
135.619065	1927.151393	0.875827	0.032319	2.571078
136.078938	1938.249985	0.880832	0.032230	2.577522
136.691416	1949.189797	0.885836	0.032112	2.583887
137.170849	1960.221587	0.890841	0.032020	2.590264
137.633131	1971.247990	0.895846	0.031930	2.596619
138.134142	1982.269234	0.900850	0.031833	2.602963
138.587676	1993.286053	0.905855	0.031746	2.609280
138.856232	2004.327162	0.910860	0.031693	2.615562
139.378227	2015.326006	0.915865	0.031592	2.621851
139.785755	2026.355469	0.920869	0.031513	2.628121
140.591034	2037.351115	0.925874	0.031359	2.634428
140.954361	2048.383905	0.930879	0.031288	2.640662
141.585960	2059.383478	0.935884	0.031167	2.646910
142.080373	2070.430575	0.940888	0.031071	2.653146
142.716542	2081.404305	0.945893	0.030949	2.659351
143.113573	2092.448974	0.950898	0.030872	2.665538
143.707940	2103.480883	0.955902	0.030758	2.671739
144.154995	2114.501508	0.960907	0.030671	2.677893
144.533946	2125.524789	0.965912	0.030597	2.684022
144.960947	2136.533481	0.970917	0.030514	2.690138
145.426145	2147.566538	0.975921	0.030424	2.696259
145.772007	2158.585794	0.980926	0.030357	2.702339
146.444876	2169.576273	0.985931	0.030228	2.708445
146.725783	2180.645517	0.990936	0.030172	2.714513
147.060393	2191.641736	0.995940	0.030107	2.720537
147.537927	2202.654654	1.000945	0.030014	2.726581
148.024573	2213.716948	1.005950	0.029920	2.732640
148.319369	2224.682710	1.010954	0.029862	2.738600
148.667995	2235.726135	1.015959	0.029794	2.744598
149.168690	2246.740578	1.020964	0.029697	2.750594
149.507883	2257.770836	1.025969	0.029631	2.756557
149.727314	2268.814997	1.030973	0.029587	2.762495
150.354613	2279.763056	1.035978	0.029467	2.768436
150.852978	2290.809850	1.040983	0.029371	2.774396
151.451283	2301.832115	1.045988	0.029256	2.780347
152.011350	2312.871220	1.050992	0.029148	2.786287
152.332146	2323.884509	1.055997	0.029085	2.792161
152.851528	2334.883167	1.061002	0.028985	2.798048
153.367121	2345.916908	1.066006	0.028885	2.803940
153.912290	2356.927807	1.071011	0.028780	2.809813
154.302211	2367.981477	1.076016	0.028704	2.815670
154.649188	2378.983558	1.081021	0.028636	2.821481
155.242041	2389.980324	1.086025	0.028522	2.827317
155.584197	2401.021288	1.091030	0.028455	2.833123
155.977038	2412.038954	1.096035	0.028379	2.838914
156.187074	2423.061483	1.101039	0.028337	2.844665
156.749717	2434.088676	1.106044	0.028229	2.850464
157.017025	2445.080854	1.111049	0.028176	2.856186
157.587481	2456.127279	1.116054	0.028066	2.861972
157.980787	2467.118378	1.121058	0.027989	2.867690
158.564719	2478.138263	1.126063	0.027877	2.873442
158.963689	2489.190916	1.131068	0.027800	2.879169
159.377386	2500.184539	1.136073	0.027719	2.884857
159.608369	2511.241196	1.141077	0.027673	2.890537
160.008887	2522.243292	1.146082	0.027595	2.896205
160.426220	2533.230297	1.151087	0.027514	2.901856
160.708563	2544.275656	1.156091	0.027458	2.907505
161.041450	2555.297121	1.161096	0.027393	2.913139
161.651077	2566.289666	1.166101	0.027276	2.918790
162.032373	2577.309587	1.171106	0.027202	2.924408
162.581693	2588.346394	1.176110	0.027096	2.930050
162.962654	2599.353871	1.181115	0.027022	2.935640
163.411014	2610.380301	1.186120	0.026935	2.941239
163.731789	2621.399697	1.191125	0.026872	2.946805
164.164964	2632.408610	1.196129	0.026788	2.952372
164.444206	2643.439217	1.201134	0.026733	2.957915
164.912392	2654.454190	1.206139	0.026642	2.963470
165.336601	2665.480436	1.211143	0.026560	2.969012
165.757410	2676.492257	1.216148	0.026478	2.974536
165.821059	2687.541637	1.221153	0.026464	2.980016
166.186433	2698.520791	1.226158	0.026392	2.985495
166.468072	2709.577519	1.231162	0.026337	2.990990
166.985769	2720.543003	1.236167	0.026237	2.996465
167.283979	2731.581345	1.241172	0.026178	3.001933
167.762480	2742.590918	1.246177	0.026086	3.007404
168.087125	2753.612509	1.251181	0.026022	3.012848
168.640475	2764.629728	1.256186	0.025916	3.018313
168.817244	2775.664119	1.261191	0.025880	3.023722
169.213941	2786.685808	1.266195	0.025803	3.029146
169.546359	2797.687833	1.271200	0.025737	3.034543
169.897983	2808.715007	1.276205	0.025669	3.039944
170.460675	2819.724803	1.281210	0.025560	3.045358
170.823565	2830.774504	1.286214	0.025490	3.050752
171.209327	2841.738913	1.291219	0.025414	3.056099
171.573535	2852.784519	1.296224	0.025343	3.061473
171.922165	2863.785055	1.301228	0.025275	3.066813
172.372848	2874.804682	1.306233	0.025188	3.072168
172.755908	2885.827646	1.311238	0.025113	3.077505
173.293336	2896.843198	1.316243	0.025010	3.082851
173.633740	2907.881383	1.321247	0.024943	3.088170
173.909773	2918.891224	1.326252	0.024889	3.093458
174.307375	2929.907134	1.331257	0.024811	3.098757
174.698973	2940.921089	1.336262	0.024735	3.104045
175.013902	2951.957838	1.341266	0.024673	3.109323
175.405411	2962.941543	1.346271	0.024597	3.114579
175.701871	2973.986182	1.351276	0.024539	3.119840
176.279456	2984.988670	1.356280	0.024428	3.125112
176.484105	2996.044704	1.361285	0.024387	3.130349
176.957995	3006.991658	1.366290	0.024295	3.135563
177.365586	3018.052054	1.371295	0.024216	3.140812
177.921205	3029.053870	1.376299	0.024109	3.146045
178.347208	3040.049897	1.381304	0.024026	3.151249
178.726297	3051.107081	1.386309	0.023952	3.156466
178.910955	3062.132765	1.391314	0.023915	3.161633
179.465357	3073.130805	1.396318	0.023808	3.166829
179.665962	3084.158251	1.401323	0.023768	3.171982
180.145037	3095.155434	1.406328	0.023675	3.177151
180.400665	3106.183004	1.411332	0.023624	3.182295
180.796129	3117.212884	1.416337	0.023547	3.187450
181.059314	3128.217724	1.421342	0.023495	3.192568
181.248888	3139.260577	1.426347	0.023457	3.197685
181.316161	3150.272052	1.431351	0.023442	3.202763
181.788058	3161.282059	1.436356	0.023350	3.207886
182.052691	3172.292029	1.441361	0.023298	3.212973
182.509158	3183.292043	1.446366	0.023210	3.218073
182.877495	3194.321174	1.451370	0.023138	3.223167
183.122109	3205.351953	1.456375	0.023089	3.228237
183.496268	3216.342987	1.461380	0.023016	3.233297
183.822763	3227.381184	1.466384	0.022952	3.238365
184.228765	3238.385190	1.471389	0.022873	3.243420
184.470208	3249.425314	1.476394	0.022825	3.248462
184.551804	3260.437865	1.481399	0.022807	3.253462
185.102720	3271.426991	1.486403	0.022701	3.258506
185.443381	3282.438128	1.491408	0.022635	3.263524
185.791178	3293.498456	1.496413	0.022567	3.268557
185.901973	3304.498490	1.501417	0.022543	3.273525
186.289768	3315.517938	1.506422	0.022468	3.278529
186.295909	3326.558828	1.511427	0.022464	3.283487
186.868231	3337.520641	1.516432	0.022354	3.288474
187.101764	3348.556017	1.521436	0.022307	3.293443
187.575140	3359.578264	1.526441	0.022215	3.298429
188.264097	3370.551269	1.531446	0.022083	3.303413
188.997884	3381.615022	1.536451	0.021943	3.308435
189.089780	3392.633945	1.541455	0.021923	3.313349
189.569561	3403.648333	1.546460	0.021830	3.318302
189.953216	3414.643569	1.551465	0.021756	3.323227
190.472139	3425.674955	1.556469	0.021655	3.328177
190.551186	3436.718007	1.561474	0.021638	3.333070
191.022521	3447.691009	1.566479	0.021547	3.337974
191.392968	3458.726881	1.571484	0.021474	3.342886
191.788473	3469.745301	1.576488	0.021398	3.347786
192.149665	3480.741616	1.581493	0.021327	3.352665
192.372759	3491.797540	1.586498	0.021282	3.357546
192.694632	3502.782767	1.591503	0.021219	3.362400
193.062555	3513.829755	1.596507	0.021148	3.367281
193.370486	3524.811355	1.601512	0.021087	3.372118
193.689658	3535.853116	1.606517	0.021024	3.376976
194.007336	3546.855587	1.611521	0.020962	3.381809
194.283831	3557.889250	1.616526	0.020908	3.386644
194.506877	3568.892811	1.621531	0.020863	3.391453
194.848445	3579.906395	1.626536	0.020796	3.396273
195.150863	3590.918063	1.631540	0.020737	3.401081
195.511326	3601.964775	1.636545	0.020666	3.405904
195.788440	3612.963259	1.641550	0.020612	3.410690
196.241859	3623.977552	1.646555	0.020524	3.415496
196.606674	3634.976637	1.651559	0.020453	3.420279
197.126140	3646.010898	1.656564	0.020352	3.425088
197.373267	3657.038683	1.661569	0.020303	3.429856
197.802752	3668.026325	1.666573	0.020220	3.434621
198.137845	3679.070401	1.671578	0.020154	3.439392
198.440795	3690.072589	1.676583	0.020095	3.444135
198.914847	3701.104302	1.681588	0.020003	3.448904
199.438218	3712.084647	1.686592	0.019902	3.453651
199.776966	3723.127190	1.691597	0.019836	3.458395
200.146730	3734.138480	1.696602	0.019764	3.463123
200.572322	3745.121839	1.701606	0.019681	3.467840
200.957511	3756.155979	1.706611	0.019606	3.472566
201.244372	3767.205285	1.711616	0.019550	3.477282
201.594593	3778.202245	1.716621	0.019481	3.481976
201.869641	3789.234271	1.721625	0.019427	3.486669
202.135912	3800.229786	1.726630	0.019374	3.491340
202.557816	3811.249534	1.731635	0.019292	3.496033
202.815611	3822.270011	1.736640	0.019241	3.500700
203.164531	3833.287217	1.741644	0.019173	3.505371
203.471639	3844.320443	1.746649	0.019113	3.510037
203.567107	3855.306384	1.751654	0.019092	3.514653
204.193092	3866.314517	1.756658	0.018972	3.519332
204.567657	3877.347300	1.761663	0.018899	3.523987
205.095065	3888.381140	1.766668	0.018797	3.528654
205.245568	3899.393110	1.771673	0.018766	3.533262
205.557228	3910.394617	1.776677	0.018705	3.537878
205.579565	3921.405835	1.781682	0.018698	3.542460
206.052480	3932.441687	1.786687	0.018607	3.547096
206.167586	3943.434818	1.791692	0.018582	3.551669
206.760174	3954.455712	1.796696	0.018468	3.556300
206.846864	3965.489158	1.801701	0.018449	3.560874
207.010981	3976.497085	1.806706	0.018416	3.565441
207.355133	3987.492726	1.811710	0.018348	3.570016
207.717108	3998.521492	1.816715	0.018278	3.574601
208.187059	4009.528131	1.821720	0.018187	3.579183
208.550662	4020.574067	1.826725	0.018116	3.583763
208.848326	4031.573013	1.831729	0.018057	3.588311
209.075762	4042.598910	1.836734	0.018012	3.592856
209.305493	4053.599454	1.841739	0.017966	3.597386
209.897076	4064.589103	1.846744	0.017852	3.601944
210.232259	4075.648712	1.851748	0.017787	3.606498
210.380180	4086.666125	1.856753	0.017756	3.611008
210.635829	4097.682529	1.861758	0.017706	3.615524
211.047361	4108.716724	1.866762	0.017626	3.620058
211.284471	4119.735421	1.871767	0.017578	3.624561
211.738130	4130.750513	1.876772	0.017491	3.629080
211.990999	4141.790663	1.881777	0.017440	3.633582
212.296480	4152.805317	1.886781	0.017380	3.638074
212.485842	4163.807448	1.891786	0.017342	3.642543
213.052603	4174.837106	1.896791	0.017233	3.647058
213.401233	4185.803059	1.901795	0.017165	3.651518
213.982543	4196.859328	1.906800	0.017053	3.656034
214.064857	4207.869629	1.911805	0.017035	3.660472
214.400134	4218.882686	1.916810	0.016969	3.664933
214.471857	4229.900219	1.921814	0.016953	3.669363
214.873191	4240.924733	1.926819	0.016875	3.673824
215.363287	4251.913946	1.931824	0.016780	3.678276
215.715944	4262.960778	1.936829	0.016711	3.682730
215.957523	4273.990968	1.941833	0.016663	3.687161
216.223070	4284.968852	1.946838	0.016611	3.691568
216.438280	4295.999910	1.951843	0.016568	3.695986
216.837616	4307.001752	1.956847	0.016490	3.700406
217.206778	4318.026547	1.961852	0.016418	3.704826
217.415836	4329.031032	1.966857	0.016376	3.709216
217.667034	4340.061401	1.971862	0.016326	3.713616
217.873301	4351.088367	1.976866	0.016285	3.718005
218.061346	4362.088267	1.981871	0.016247	3.722376
218.394887	4373.106982	1.986876	0.016181	3.726764
218.685135	4384.101126	1.991881	0.016124	3.731132
219.099096	4395.136598	1.996885	0.016044	3.735525
219.216499	4406.147097	2.001890	0.016019	3.739872
219.685991	4417.166902	2.006895	0.015928	3.744253
