Wed Nov 23 17:50:12 2022

Number of Points = 2200
Depth (nm)	Load (µN)	Time (s)	Depth (V)	Load (V)
-1.595643	0.451963	0.000000	0.048732	0.912785
0.000000	6.850462	0.005005	0.048431	0.924040
1.406681	15.939025	0.010009	0.048165	0.939290
2.565579	26.547022	0.015014	0.047945	0.956503
3.684961	37.608633	0.020019	0.047732	0.974078
4.671402	48.801013	0.025024	0.047544	0.991462
5.612004	59.957883	0.030028	0.047365	1.008469
6.652592	71.115292	0.035033	0.047167	1.025246
8.277228	82.158927	0.040038	0.046859	1.041898
9.074695	93.488888	0.045043	0.046707	1.058259
9.621844	104.733188	0.050047	0.046601	1.074126
11.104372	115.624325	0.055052	0.046321	1.089750
16.046111	125.974069	0.060057	0.045391	1.106133
18.923704	137.516567	0.065061	0.044848	1.122841
20.325739	149.023721	0.070066	0.044582	1.138553
21.673145	160.201595	0.075071	0.044326	1.153602
22.704838	171.421062	0.080076	0.044130	1.168362
23.766058	182.525787	0.085080	0.043928	1.182807
25.031294	193.619959	0.090085	0.043688	1.197157
26.309172	204.707673	0.095090	0.043445	1.211333
27.992077	215.744980	0.100094	0.043127	1.225463
29.116449	226.965403	0.105099	0.042913	1.239405
29.957663	238.103434	0.110104	0.042753	1.252972
31.318124	249.140237	0.115109	0.042495	1.266497
32.291776	260.272142	0.120113	0.042309	1.279824
33.610112	271.296201	0.125118	0.042059	1.293033
34.694209	282.520255	0.130123	0.041853	1.306238
36.063838	293.445600	0.135128	0.041593	1.319092
37.247580	304.612771	0.140132	0.041368	1.332014
38.536657	315.666080	0.145137	0.041124	1.344729
39.474860	326.809131	0.150142	0.040945	1.357282
40.306028	337.896604	0.155146	0.040786	1.369618
41.453546	348.952147	0.160151	0.040568	1.381931
42.374186	360.028339	0.165156	0.040393	1.394070
43.466676	371.077979	0.170161	0.040185	1.406141
44.668546	382.140593	0.175165	0.039957	1.418164
45.572044	393.243200	0.180170	0.039784	1.430014
46.495514	404.321590	0.185175	0.039608	1.441749
47.407555	415.411866	0.190180	0.039434	1.453397
48.016659	426.515471	0.195184	0.039317	1.464855
49.104390	437.477358	0.200189	0.039111	1.476254
50.558142	448.504494	0.205194	0.038835	1.487761
51.359654	459.655660	0.210198	0.038682	1.499070
52.285940	470.698483	0.215203	0.038505	1.510232
53.000415	481.818503	0.220208	0.038369	1.521312
53.938979	492.816112	0.225213	0.038190	1.532271
54.760009	503.922275	0.230217	0.038033	1.543216
55.917126	514.894980	0.235222	0.037813	1.554070
56.812872	526.001541	0.240227	0.037642	1.564887
57.394317	537.093213	0.245232	0.037530	1.575510
58.379011	548.092205	0.250236	0.037343	1.586109
59.429251	559.136029	0.255241	0.037143	1.596700
59.959586	570.276274	0.260246	0.037041	1.607139
60.928624	581.250234	0.265250	0.036856	1.617501
61.916787	592.290354	0.270255	0.036668	1.627863
62.636884	603.405153	0.275260	0.036530	1.638141
63.502955	614.402459	0.280265	0.036365	1.648295
64.442105	625.458543	0.285269	0.036186	1.658462
65.282190	636.506387	0.290274	0.036026	1.668528
66.229057	647.516246	0.295279	0.035845	1.678533
67.555577	658.564016	0.300283	0.035594	1.688629
68.307180	669.651191	0.305288	0.035450	1.698522
69.273812	680.695217	0.310293	0.035266	1.708386
70.461036	691.676645	0.315298	0.035040	1.718206
71.137418	702.831347	0.320302	0.034911	1.727963
71.909040	713.838838	0.325307	0.034763	1.737569
72.631053	724.900939	0.330312	0.034625	1.747152
73.159508	735.969059	0.335317	0.034523	1.756631
73.725570	747.006099	0.340321	0.034414	1.766044
74.631992	758.000253	0.345326	0.034241	1.775471
75.611473	769.019837	0.350331	0.034055	1.784889
76.400841	780.084726	0.355335	0.033904	1.794240
77.299508	791.124789	0.360340	0.033732	1.803554
78.049938	802.175089	0.365345	0.033589	1.812785
78.882847	813.203972	0.370350	0.033430	1.821974
79.605595	824.260776	0.375354	0.033292	1.831109
80.680725	835.246574	0.380359	0.033087	1.840240
81.235750	846.363560	0.385364	0.032980	1.849285
82.223388	857.347624	0.390369	0.032792	1.858301
82.900964	868.415377	0.395373	0.032662	1.867253
83.515948	879.465775	0.400378	0.032544	1.876131
84.016000	890.524647	0.405383	0.032448	1.884942
84.699079	901.529820	0.410387	0.032317	1.893720
85.408253	912.559218	0.415392	0.032181	1.902482
86.441980	923.547265	0.420397	0.031984	1.911260
87.459478	934.589319	0.425402	0.031791	1.920034
88.335417	945.634293	0.430406	0.031623	1.928732
89.251913	956.697944	0.435411	0.031449	1.937416
89.566741	967.791066	0.440416	0.031387	1.945925
90.646733	978.678676	0.445421	0.031182	1.954442
91.703263	989.772150	0.450425	0.030981	1.963070
92.512483	1000.824606	0.455430	0.030826	1.971565
93.359760	1011.849820	0.460435	0.030664	1.980012
93.790644	1022.950163	0.465439	0.030581	1.988373
94.304598	1033.984340	0.470444	0.030482	1.996671
95.000478	1044.962081	0.475449	0.030348	2.004938
96.017775	1055.988679	0.480454	0.030155	2.013289
96.725548	1067.045919	0.485458	0.030019	2.021549
97.476163	1078.054541	0.490463	0.029875	2.029750
98.327313	1089.109434	0.495468	0.029713	2.037977
99.156744	1100.114413	0.500472	0.029555	2.046129
99.765889	1111.216098	0.505477	0.029438	2.054263
100.359751	1122.177422	0.510482	0.029323	2.062261
101.144153	1133.242645	0.515487	0.029174	2.070348
101.686440	1144.290021	0.520491	0.029069	2.078332
102.161485	1155.327497	0.525496	0.028977	2.086262
102.933424	1166.311874	0.530501	0.028830	2.094196
103.610627	1177.356796	0.535506	0.028700	2.102119
104.297572	1188.377032	0.540510	0.028568	2.109998
105.109101	1199.403403	0.545515	0.028413	2.117880
105.692445	1210.455268	0.550520	0.028301	2.125697
106.599797	1221.434940	0.555524	0.028128	2.133511
107.256552	1232.520362	0.560529	0.028002	2.141311
107.912605	1243.526379	0.565534	0.027876	2.149027
108.456651	1254.580545	0.570539	0.027771	2.156723
108.923234	1265.627874	0.575543	0.027681	2.164368
109.693005	1276.590185	0.580548	0.027534	2.171998
110.404085	1287.662841	0.585553	0.027398	2.179663
111.102076	1298.645607	0.590558	0.027264	2.187236
111.783993	1309.723793	0.595562	0.027133	2.194844
112.596391	1320.682867	0.600567	0.026978	2.202375
113.347601	1331.772667	0.605572	0.026835	2.209953
113.922058	1342.781741	0.610576	0.026724	2.217412
114.673698	1353.811453	0.615581	0.026580	2.224899
115.344130	1364.816148	0.620586	0.026452	2.232326
115.929358	1375.907921	0.625591	0.026339	2.239766
116.305128	1386.918687	0.630595	0.026266	2.247083
116.991478	1397.937292	0.635600	0.026134	2.254449
117.581266	1408.941617	0.640605	0.026021	2.261760
118.315456	1419.966417	0.645610	0.025881	2.269092
118.825057	1431.028984	0.650614	0.025782	2.276376
119.259656	1442.042375	0.655619	0.025698	2.283588
119.852076	1453.042499	0.660624	0.025584	2.290803
120.527111	1464.065335	0.665628	0.025455	2.298028
121.292034	1475.096702	0.670633	0.025308	2.305254
121.770316	1486.143560	0.675638	0.025216	2.312406
122.290228	1497.164874	0.680643	0.025116	2.319529
122.869066	1508.192945	0.685647	0.025004	2.326647
123.423566	1519.215362	0.690652	0.024898	2.333733
123.941520	1530.232241	0.695657	0.024798	2.340787
124.581209	1541.247542	0.700661	0.024675	2.347844
125.303237	1552.278461	0.705666	0.024537	2.354907
125.764415	1563.303653	0.710671	0.024447	2.361890
126.408811	1574.347782	0.715676	0.024324	2.368903
127.074142	1585.326866	0.720680	0.024196	2.375858
127.849724	1596.367896	0.725685	0.024048	2.382854
128.656943	1607.370628	0.730690	0.023894	2.389811
129.093629	1618.457227	0.735695	0.023809	2.396725
129.334611	1629.501940	0.740699	0.023761	2.403553
129.824652	1640.483199	0.745704	0.023666	2.410374
130.438013	1651.492905	0.750709	0.023549	2.417217
131.069639	1662.540567	0.755713	0.023427	2.424067
131.600197	1673.531793	0.760718	0.023325	2.430843
132.045597	1684.605413	0.765723	0.023239	2.437633
132.404372	1695.610507	0.770728	0.023169	2.444346
133.022213	1706.604438	0.775732	0.023050	2.451085
133.784037	1717.629595	0.780737	0.022904	2.457851
134.467402	1728.644802	0.785742	0.022773	2.464578
135.165947	1739.661026	0.790747	0.022640	2.471290
135.790867	1750.727268	0.795751	0.022520	2.477999
136.485223	1761.707269	0.800756	0.022387	2.484651
137.139130	1772.773928	0.805761	0.022261	2.491329
137.575783	1783.806929	0.810765	0.022176	2.497928
138.030298	1794.818817	0.815770	0.022088	2.504500
138.291139	1805.845232	0.820775	0.022037	2.511026
138.779948	1816.864085	0.825780	0.021942	2.517574
139.252801	1827.878720	0.830784	0.021851	2.524100
140.074741	1838.856649	0.835789	0.021694	2.530653
140.508106	1849.928410	0.840794	0.021610	2.537170
141.032620	1860.958537	0.845799	0.021509	2.543663
141.736161	1871.922721	0.850803	0.021374	2.550135
142.361845	1882.971779	0.855808	0.021254	2.556625
143.088731	1894.014984	0.860813	0.021115	2.563113
143.688229	1905.019582	0.865817	0.021000	2.569539
144.007895	1916.130655	0.870822	0.020937	2.575959
144.239296	1927.097662	0.875827	0.020891	2.582263
144.818400	1938.082111	0.880832	0.020779	2.588626
145.694176	1949.083289	0.885836	0.020612	2.595037
146.303336	1960.134176	0.890841	0.020495	2.601411
146.634351	1971.175292	0.895846	0.020430	2.607714
146.882631	1982.215213	0.900850	0.020381	2.613986
147.213536	1993.221668	0.905855	0.020316	2.620239
147.697016	2004.201076	0.910860	0.020223	2.626489
148.424450	2015.252724	0.915865	0.020084	2.632808
148.929173	2026.248559	0.920869	0.019986	2.639040
149.192873	2037.306420	0.925874	0.019934	2.645250
149.576162	2048.322731	0.930879	0.019859	2.651443
150.235843	2059.298190	0.935884	0.019733	2.657648
150.715584	2070.303743	0.940888	0.019640	2.663823
151.306850	2081.331175	0.945893	0.019526	2.670015
151.993671	2092.367144	0.950898	0.019395	2.676214
152.206116	2103.415122	0.955902	0.019352	2.682323
152.752928	2114.402001	0.960907	0.019247	2.688442
153.227627	2125.426031	0.965912	0.019155	2.694555
153.860633	2136.433091	0.970917	0.019034	2.700672
154.461393	2147.476123	0.975921	0.018918	2.706788
155.061236	2158.495160	0.980926	0.018803	2.712878
155.383042	2169.516744	0.985931	0.018740	2.718908
155.893453	2180.521683	0.990936	0.018641	2.724948
156.318214	2191.583299	0.995940	0.018559	2.730990
156.810872	2202.566182	1.000945	0.018464	2.736987
157.258622	2213.601862	1.005950	0.018377	2.742992
157.770896	2224.594233	1.010954	0.018278	2.748972
158.364184	2235.626086	1.015959	0.018164	2.754973
159.080844	2246.627096	1.020964	0.018027	2.760965
159.445843	2257.693802	1.025969	0.017955	2.766920
159.905999	2268.700937	1.030973	0.017866	2.772847
160.069302	2279.730120	1.035978	0.017833	2.778723
160.692882	2290.708790	1.040983	0.017713	2.784636
161.028900	2301.790651	1.045988	0.017648	2.790544
161.623084	2312.763742	1.050992	0.017533	2.796424
162.139187	2323.795090	1.055997	0.017434	2.802309
162.512765	2334.812430	1.061002	0.017361	2.808151
162.973432	2345.851167	1.066006	0.017272	2.814006
163.293640	2356.836880	1.071011	0.017209	2.819799
163.989353	2367.851904	1.076016	0.017076	2.825656
164.736170	2378.882598	1.081021	0.016933	2.831516
165.287904	2389.902404	1.086025	0.016827	2.837328
165.708340	2400.911331	1.091030	0.016745	2.843100
166.056591	2411.982384	1.096035	0.016677	2.848881
166.716250	2422.940188	1.101039	0.016550	2.854642
167.276647	2433.985536	1.106044	0.016442	2.860420
167.704799	2445.003476	1.111049	0.016359	2.866152
168.139721	2456.057740	1.116054	0.016275	2.871891
168.357869	2467.059132	1.121058	0.016231	2.877558
168.807296	2478.056005	1.126063	0.016144	2.883247
169.402518	2489.079985	1.131068	0.016030	2.888962
170.105422	2500.097751	1.136073	0.015895	2.894679
170.390115	2511.135321	1.141077	0.015839	2.900330
170.699762	2522.160603	1.146082	0.015778	2.905967
171.234170	2533.154925	1.151087	0.015675	2.911612
171.666992	2544.179998	1.156091	0.015591	2.917246
172.246886	2555.171420	1.161096	0.015480	2.922875
172.791619	2566.232097	1.166101	0.015375	2.928522
173.028998	2577.234191	1.171106	0.015328	2.934082
173.583592	2588.263693	1.176110	0.015221	2.939693
173.969919	2599.258655	1.181115	0.015146	2.945250
174.696407	2610.278447	1.186120	0.015007	2.950861
175.179094	2621.306936	1.191125	0.014913	2.956428
175.605622	2632.343652	1.196129	0.014831	2.961981
175.936768	2643.339828	1.201134	0.014766	2.967488
176.475179	2654.364670	1.206139	0.014662	2.973031
177.018782	2665.375006	1.211143	0.014557	2.978557
177.483141	2676.403145	1.216148	0.014467	2.984069
177.865034	2687.433350	1.221153	0.014393	2.989559
178.383959	2698.434013	1.226158	0.014293	2.995046
178.771736	2709.458054	1.231162	0.014217	3.000514
179.219814	2720.481929	1.236167	0.014131	3.005981
179.702020	2731.509717	1.241172	0.014037	3.011445
180.156023	2742.505742	1.246177	0.013949	3.016879
180.525731	2753.516000	1.251181	0.013877	3.022298
181.124106	2764.543982	1.256186	0.013762	3.027749
181.466620	2775.584264	1.261191	0.013695	3.033159
181.828892	2786.599388	1.266195	0.013625	3.038549
182.176352	2797.609843	1.271200	0.013557	3.043926
182.482992	2808.638121	1.276205	0.013496	3.049296
182.734203	2819.658657	1.281210	0.013447	3.054645
183.059279	2830.664408	1.286214	0.013383	3.059987
183.560846	2841.658601	1.291219	0.013286	3.065340
184.132164	2852.697405	1.296224	0.013176	3.070715
184.434220	2863.717493	1.301228	0.013117	3.076033
184.738655	2874.747122	1.306233	0.013057	3.081347
184.964433	2885.749394	1.311238	0.013012	3.086627
185.395979	2896.770723	1.316243	0.012928	3.091936
185.571572	2907.790715	1.321247	0.012892	3.097200
186.075524	2918.789684	1.326252	0.012795	3.102490
186.582264	2929.814405	1.331257	0.012697	3.107784
187.162635	2940.843316	1.336262	0.012586	3.113081
187.797180	2951.841228	1.341266	0.012464	3.118362
188.132693	2962.887021	1.346271	0.012398	3.123615
188.499534	2973.887417	1.351276	0.012327	3.128842
188.911927	2984.923788	1.356280	0.012246	3.134083
189.070332	2995.941185	1.361285	0.012214	3.139271
189.604549	3006.937280	1.366290	0.012111	3.144493
189.966147	3017.970814	1.371295	0.012040	3.149700
190.472471	3028.961120	1.376299	0.011943	3.154897
191.102606	3039.996187	1.381304	0.011822	3.160124
191.564777	3051.012692	1.386309	0.011732	3.165310
192.099954	3062.025058	1.391314	0.011629	3.170495
192.474837	3073.048927	1.396318	0.011556	3.175656
192.943485	3084.052951	1.401323	0.011465	3.180812
193.305612	3095.098945	1.406328	0.011395	3.185964
193.685153	3106.094454	1.411332	0.011321	3.191087
194.126896	3117.117065	1.416337	0.011235	3.196222
194.529701	3128.124336	1.421342	0.011157	3.201337
195.077599	3139.175551	1.426347	0.011051	3.206483
195.438648	3150.141827	1.431351	0.010981	3.211557
195.859326	3161.204131	1.436356	0.010899	3.216675
196.077351	3172.200925	1.441361	0.010856	3.221727
196.717328	3183.214366	1.446366	0.010733	3.226835
197.193766	3194.230758	1.451370	0.010641	3.231915
197.832060	3205.238848	1.456375	0.010518	3.237004
197.991546	3216.289485	1.461380	0.010485	3.242041
198.446474	3227.293695	1.466384	0.010397	3.247088
198.637504	3238.307244	1.471389	0.010359	3.252097
199.127508	3249.336334	1.476394	0.010264	3.257144
199.560120	3260.319185	1.481399	0.010180	3.262155
200.117323	3271.370996	1.486403	0.010073	3.267205
200.602100	3282.357038	1.491408	0.009979	3.272208
201.038488	3293.398603	1.496413	0.009895	3.277222
201.303034	3304.420993	1.501417	0.009842	3.282198
201.891072	3315.426505	1.506422	0.009729	3.287200
202.259137	3326.435321	1.511427	0.009657	3.292168
202.824981	3337.460702	1.516432	0.009549	3.297161
203.103601	3348.480079	1.521436	0.009494	3.302107
203.479692	3359.499031	1.526441	0.009420	3.307057
203.902957	3370.497540	1.531446	0.009338	3.311997
204.362590	3381.541291	1.536451	0.009249	3.316954
204.670042	3392.533087	1.541455	0.009189	3.321862
205.057118	3403.590202	1.546460	0.009113	3.326801
205.245755	3414.571100	1.551465	0.009075	3.331674
205.682134	3425.599438	1.556469	0.008991	3.336592
206.000233	3436.607689	1.561474	0.008928	3.341479
206.369159	3447.628669	1.566479	0.008856	3.346370
206.659846	3458.650507	1.571484	0.008799	3.351245
206.986844	3469.674167	1.576488	0.008735	3.356118
207.479256	3480.661866	1.581493	0.008640	3.360989
208.044375	3491.709142	1.586498	0.008531	3.365887
208.478596	3502.698917	1.591503	0.008447	3.370737
208.934170	3513.737658	1.596507	0.008359	3.375604
209.214142	3524.740106	1.601512	0.008303	3.380427
209.681228	3535.763609	1.606517	0.008213	3.385274
210.016194	3546.782766	1.611521	0.008147	3.390097
210.330431	3557.802109	1.616526	0.008086	3.394910
210.783847	3568.804282	1.621531	0.007998	3.399726
211.161556	3579.831337	1.626536	0.007924	3.404536
211.268453	3590.863711	1.631540	0.007901	3.409309
211.805910	3601.859863	1.636545	0.007798	3.414112
212.132158	3612.874161	1.641550	0.007734	3.418890
212.650399	3623.873347	1.646555	0.007634	3.423678
213.173484	3634.906016	1.651559	0.007533	3.428474
213.564340	3645.923511	1.656564	0.007457	3.433241
213.790048	3656.949163	1.661569	0.007412	3.437985
214.234401	3667.950929	1.666573	0.007326	3.442739
214.647244	3678.993149	1.671578	0.007246	3.447499
215.086490	3689.989471	1.676583	0.007160	3.452236
215.333276	3701.011854	1.681588	0.007111	3.456955
215.627394	3712.021776	1.686592	0.007054	3.461667
215.917621	3723.039219	1.691597	0.006996	3.466376
216.444731	3734.060555	1.696602	0.006895	3.471108
216.804077	3745.076364	1.701606	0.006825	3.475811
217.113799	3756.086316	1.706611	0.006764	3.480500
217.341943	3767.124902	1.711616	0.006718	3.485185
217.657811	3778.130056	1.716621	0.006656	3.489859
218.007947	3789.121581	1.721625	0.006588	3.494526
218.460886	3800.178059	1.726630	0.006500	3.499225
218.610072	3811.185442	1.731635	0.006469	3.503862
218.934123	3822.204542	1.736640	0.006406	3.508518
218.997585	3833.210377	1.741644	0.006391	3.513133
219.776886	3844.190464	1.746649	0.006242	3.517812
220.180611	3855.230466	1.751654	0.006164	3.522468
220.744249	3866.254727	1.756658	0.006055	3.527128
220.939020	3877.283204	1.761663	0.006016	3.531742
221.448820	3888.278408	1.766668	0.005918	3.536372
221.822976	3899.286129	1.771673	0.005845	3.540986
222.440630	3910.303663	1.776677	0.005726	3.545625
222.657864	3921.352444	1.781682	0.005683	3.550226
222.857450	3932.363888	1.786687	0.005642	3.554803
223.247036	3943.346765	1.791692	0.005567	3.559384
223.644574	3954.385922	1.796696	0.005489	3.563983
223.957328	3965.408704	1.801701	0.005428	3.568560
224.236137	3976.430763	1.806706	0.005373	3.573127
224.512320	3987.432923	1.811710	0.005318	3.577680
224.735352	3998.434694	1.816715	0.005274	3.582220
224.946524	4009.479717	1.821720	0.005231	3.586771
225.346868	4020.451676	1.826725	0.005153	3.591308
225.832380	4031.493774	1.831729	0.005060	3.595876
226.208009	4042.508586	1.836734	0.004986	3.600416
226.505513	4053.533224	1.841739	0.004928	3.604945
226.670969	4064.541261	1.846744	0.004894	3.609447
227.075083	4075.551827	1.851748	0.004816	3.613970
227.570557	4086.585301	1.856753	0.004720	3.618507
227.848193	4097.607075	1.861758	0.004665	3.623010
228.261729	4108.669155	1.866762	0.004585	3.627538
228.341052	4119.658140	1.871767	0.004567	3.631995
228.783018	4130.668907	1.876772	0.004481	3.636494
229.128027	4141.686882	1.881777	0.004414	3.640980
229.753787	4152.727400	1.886781	0.004294	3.645500
230.021080	4163.719431	1.891786	0.004241	3.649956
230.263601	4174.747201	1.896791	0.004193	3.654418
230.700756	4185.749806	1.901795	0.004108	3.658885
231.274616	4196.760615	1.906800	0.003998	3.663365
231.656466	4207.810975	1.911805	0.003923	3.667834
231.950971	4218.817729	1.916810	0.003865	3.672272
232.181163	4229.823685	1.921814	0.003819	3.676696
232.597801	4240.839596	1.926819	0.003738	3.681139
232.813870	4251.868454	1.931824	0.003695	3.685561
233.285608	4262.857983	1.936829	0.003604	3.689988
233.765795	4273.862846	1.941833	0.003511	3.694417
234.178183	4284.899823	1.946838	0.003431	3.698846
234.367662	4295.939265	1.951843	0.003393	3.703248
234.671477	4306.938591	1.956847	0.003333	3.707640
234.890614	4317.954329	1.961852	0.003289	3.712025
235.539256	4328.949849	1.966857	0.003165	3.716441
235.762021	4339.966784	1.971862	0.003120	3.720816
236.160795	4351.017739	1.976866	0.003042	3.725218
236.422525	4362.009028	1.981871	0.002991	3.729576
237.001496	4373.005908	1.986876	0.002879	3.733964
237.331774	4384.033638	1.991881	0.002815	3.738334
237.910134	4395.052665	1.996885	0.002703	3.742720
238.249836	4406.098099	2.001890	0.002637	3.747087
238.485397	4417.079098	2.006895	0.002590	3.751413
