Wed Nov 23 19:06:18 2022

Number of Points = 2200
Depth (nm)	Load (µN)	Time (s)	Depth (V)	Load (V)
-2.976203	1.510881	0.000000	0.017683	1.008712
0.000000	7.322737	0.005005	0.017123	1.018752
2.977993	16.408115	0.010009	0.016562	1.033366
5.622858	27.108334	0.015014	0.016063	1.049868
7.748386	38.313525	0.020019	0.015661	1.066545
9.239299	49.568914	0.025024	0.015379	1.082713
10.485304	60.824483	0.030028	0.015142	1.098521
11.335716	72.055493	0.035033	0.014980	1.113880
12.045058	83.253028	0.040038	0.014844	1.128917
12.678348	94.399228	0.045043	0.014722	1.143654
13.163464	105.556589	0.050047	0.014628	1.158148
13.549395	116.679795	0.055052	0.014553	1.172374
14.110737	127.777094	0.060057	0.014445	1.186477
14.277712	138.953563	0.065061	0.014411	1.200333
14.897039	149.983897	0.070066	0.014292	1.214055
15.227280	161.128609	0.075071	0.014227	1.227634
15.788841	172.193149	0.080076	0.014119	1.241069
16.185322	183.299153	0.085080	0.014042	1.254337
16.632800	194.408052	0.090085	0.013956	1.267491
16.755187	205.532949	0.095090	0.013930	1.280392
17.178489	216.592177	0.100094	0.013848	1.293215
25.013917	226.156086	0.105099	0.012375	1.307268
27.213076	238.266716	0.110104	0.011959	1.321717
28.258867	249.642764	0.115109	0.011760	1.334737
29.264578	260.781660	0.120113	0.011569	1.347356
30.537490	271.805686	0.125118	0.011327	1.359838
31.726615	282.907215	0.130123	0.011101	1.372256
32.867875	293.972939	0.135128	0.010885	1.384506
34.397396	305.009926	0.140132	0.010595	1.396765
35.290100	316.175297	0.145137	0.010425	1.408810
36.438978	327.220839	0.150142	0.010206	1.420724
37.180374	338.349779	0.155146	0.010064	1.432473
38.421426	349.320120	0.160151	0.009829	1.444148
39.585341	360.416498	0.165156	0.009608	1.455828
40.623799	371.513226	0.170161	0.009410	1.467369
41.355816	382.598175	0.175165	0.009270	1.478698
42.224944	393.668034	0.180170	0.009104	1.489974
43.217958	404.695868	0.185175	0.008915	1.501168
44.201801	415.771370	0.190180	0.008728	1.512321
44.909898	426.853304	0.195184	0.008592	1.523303
46.044470	437.856878	0.200189	0.008376	1.534278
46.859571	448.966812	0.205194	0.008221	1.545165
47.738279	460.002419	0.210198	0.008053	1.555928
48.393967	471.114796	0.215203	0.007927	1.566613
49.437368	482.081182	0.220208	0.007729	1.577219
50.686699	493.099337	0.225213	0.007492	1.587870
51.677658	504.212257	0.230217	0.007303	1.598451
52.537928	515.256674	0.235222	0.007139	1.608857
53.568717	526.333224	0.240227	0.006943	1.619279
54.351781	537.353244	0.245232	0.006793	1.629504
55.767225	548.339119	0.250236	0.006525	1.639836
56.425877	559.496654	0.255241	0.006398	1.650016
57.360107	570.513290	0.260246	0.006220	1.660095
58.165318	581.582057	0.265250	0.006067	1.670118
58.935812	592.624902	0.270255	0.005919	1.680048
60.158180	603.601712	0.275260	0.005687	1.690000
60.888253	614.743674	0.280265	0.005547	1.699886
61.684850	625.753065	0.285269	0.005395	1.709621
62.361121	636.824830	0.290274	0.005266	1.719317
63.441469	647.801152	0.295279	0.005060	1.728998
64.249305	658.888571	0.300283	0.004906	1.738638
65.173642	669.918017	0.305288	0.004730	1.748210
66.281310	680.933806	0.310293	0.004519	1.757772
66.897661	692.046891	0.315298	0.004401	1.767218
67.661575	703.076870	0.320302	0.004255	1.776589
68.135737	714.145578	0.325307	0.004163	1.785858
68.980707	725.126210	0.330312	0.004002	1.795113
69.559471	736.213235	0.335317	0.003890	1.804331
70.124300	747.253885	0.340321	0.003782	1.813460
70.783447	758.269750	0.345326	0.003655	1.822550
71.861166	769.258954	0.350331	0.003450	1.831691
72.412199	780.384072	0.355335	0.003344	1.840748
73.029089	791.408879	0.360340	0.003226	1.849698
73.931595	802.374221	0.365345	0.003053	1.858637
74.951663	813.444336	0.370350	0.002859	1.867647
75.913420	824.456248	0.375354	0.002676	1.876552
76.587978	835.535396	0.380359	0.002547	1.885389
77.262619	846.581119	0.385364	0.002417	1.894158
78.345958	857.542311	0.390369	0.002211	1.902932
79.093839	868.631044	0.395373	0.002068	1.911673
79.921256	879.681965	0.400378	0.001910	1.920366
80.476069	890.722360	0.405383	0.001804	1.928939
81.148224	901.778213	0.410387	0.001675	1.937517
81.824896	912.767589	0.415392	0.001545	1.946008
82.622350	923.801823	0.420397	0.001393	1.954527
83.441716	934.809718	0.425402	0.001236	1.962994
84.114988	945.915277	0.430406	0.001107	1.971460
84.632590	956.923447	0.435411	0.001007	1.979777
85.500265	967.934769	0.440416	0.000842	1.988151
85.975159	978.995163	0.445421	0.000750	1.996425
87.033567	989.965889	0.450425	0.000549	2.004747
87.713414	1001.058350	0.455430	0.000418	2.013028
88.338376	1012.097748	0.460435	0.000298	2.021222
88.777191	1023.130041	0.465439	0.000213	2.029332
89.697711	1034.117211	0.470444	0.000038	2.037496
90.128332	1045.229346	0.475449	-0.000046	2.045595
90.645247	1056.245518	0.480454	-0.000146	2.053616
91.077817	1067.277252	0.485458	-0.000229	2.061595
91.969573	1078.237558	0.490463	-0.000399	2.069604
92.624486	1089.322784	0.495468	-0.000525	2.077613
93.341626	1100.343921	0.500472	-0.000662	2.085561
93.854921	1111.399927	0.505477	-0.000761	2.093454
94.857637	1122.335623	0.510482	-0.000952	2.101350
95.527042	1133.423397	0.515487	-0.001081	2.109242
96.388325	1144.411942	0.520491	-0.001245	2.117082
97.281260	1155.498951	0.525496	-0.001415	2.124967
98.080946	1166.489320	0.530501	-0.001568	2.132735
98.671500	1177.548999	0.535506	-0.001682	2.140473
99.314117	1188.574366	0.540510	-0.001805	2.148172
99.694455	1199.640193	0.545515	-0.001879	2.155809
100.284585	1210.619510	0.550520	-0.001992	2.163410
101.100711	1221.639848	0.555524	-0.002148	2.171062
101.764077	1232.704238	0.560529	-0.002276	2.178683
102.219099	1243.723888	0.565534	-0.002364	2.186199
103.233839	1254.713073	0.570539	-0.002557	2.193796
103.662086	1265.774880	0.575543	-0.002640	2.201282
104.346531	1276.808773	0.580548	-0.002771	2.208782
105.065893	1287.798693	0.585553	-0.002909	2.216235
106.057310	1298.815537	0.590558	-0.003098	2.223740
106.604459	1309.887035	0.595562	-0.003203	2.231158
107.203870	1320.918567	0.600567	-0.003318	2.238536
107.920640	1331.934076	0.605572	-0.003455	2.245905
108.135505	1343.017912	0.610576	-0.003498	2.253185
108.836162	1353.956070	0.615581	-0.003633	2.260452
109.780626	1364.979030	0.620586	-0.003813	2.267803
110.288672	1376.060160	0.625591	-0.003911	2.275074
110.765772	1387.077014	0.630595	-0.004003	2.282273
111.140532	1398.119784	0.635600	-0.004076	2.289444
111.793971	1409.110016	0.640605	-0.004201	2.296618
112.394182	1420.121333	0.645610	-0.004317	2.303772
113.083056	1431.159986	0.650614	-0.004449	2.310940
113.693200	1442.204511	0.655619	-0.004566	2.318072
114.362169	1453.189819	0.660624	-0.004694	2.325157
114.960627	1464.255955	0.665628	-0.004809	2.332257
115.376428	1475.305409	0.670633	-0.004890	2.339286
115.807785	1486.278555	0.675638	-0.004973	2.346250
116.726599	1497.306796	0.680643	-0.005149	2.353328
117.385458	1508.302320	0.685647	-0.005275	2.360310
118.047892	1519.383148	0.690652	-0.005402	2.367326
118.578891	1530.420087	0.695657	-0.005504	2.374266
119.085776	1541.410477	0.700661	-0.005602	2.381152
119.572266	1552.438172	0.705666	-0.005696	2.388037
119.823017	1563.512174	0.710671	-0.005746	2.394883
120.299079	1574.480740	0.715676	-0.005838	2.401691
120.980915	1585.526223	0.720680	-0.005969	2.408566
121.521694	1596.524511	0.725685	-0.006073	2.415366
122.172825	1607.539520	0.730690	-0.006198	2.422178
123.069293	1618.549213	0.735695	-0.006369	2.429016
123.967192	1629.565952	0.740699	-0.006540	2.435839
124.712891	1640.625541	0.745704	-0.006683	2.442639
125.420548	1651.637795	0.750709	-0.006818	2.449383
126.067997	1662.665084	0.755713	-0.006942	2.456106
126.638255	1673.706843	0.760718	-0.007052	2.462804
126.984318	1684.738901	0.765723	-0.007120	2.469435
127.623172	1695.739134	0.770728	-0.007242	2.476085
128.197115	1706.768838	0.775732	-0.007353	2.482722
128.684873	1717.801065	0.780737	-0.007447	2.489327
129.092042	1728.838523	0.785742	-0.007526	2.495901
129.885728	1739.809936	0.790747	-0.007678	2.502493
130.386098	1750.854842	0.795751	-0.007774	2.509054
131.142403	1761.853616	0.800756	-0.007919	2.515620
131.760806	1772.913748	0.805761	-0.008038	2.522178
132.125706	1783.929561	0.810765	-0.008109	2.528646
133.106970	1794.898569	0.815770	-0.008296	2.535185
133.953275	1805.950649	0.820775	-0.008457	2.541730
134.351867	1817.026204	0.825780	-0.008535	2.548188
134.852028	1828.005502	0.830784	-0.008632	2.554593
135.166616	1839.063604	0.835789	-0.008693	2.560993
135.701989	1850.058227	0.840794	-0.008796	2.567381
136.135079	1861.143747	0.845799	-0.008881	2.573786
136.554688	1872.127002	0.850803	-0.008962	2.580114
137.207770	1883.119253	0.855808	-0.009087	2.586475
137.803304	1894.133373	0.860813	-0.009202	2.592821
138.503292	1905.157583	0.865817	-0.009336	2.599177
139.221546	1916.147044	0.870822	-0.009473	2.605500
139.616489	1927.241798	0.875827	-0.009550	2.611809
140.190894	1938.226572	0.880832	-0.009661	2.618073
140.605842	1949.249990	0.885836	-0.009741	2.624315
141.168035	1960.273662	0.890841	-0.009849	2.630569
141.641947	1971.298032	0.895846	-0.009941	2.636792
142.224367	1982.328301	0.900850	-0.010053	2.643023
142.710955	1993.340598	0.905855	-0.010147	2.649212
143.307396	2004.349452	0.910860	-0.010262	2.655404
143.815538	2015.378007	0.915865	-0.010360	2.661577
144.250775	2026.407713	0.920869	-0.010444	2.667723
144.894457	2037.396183	0.925874	-0.010568	2.673869
145.305541	2048.442269	0.930879	-0.010648	2.679992
145.831169	2059.431001	0.935884	-0.010749	2.686089
146.385619	2070.466651	0.940888	-0.010856	2.692202
146.938988	2081.476176	0.945893	-0.010962	2.698287
147.530820	2092.478980	0.950898	-0.011076	2.704361
147.947511	2103.535995	0.955902	-0.011157	2.710421
148.682119	2114.504218	0.960907	-0.011298	2.716474
149.137045	2125.573745	0.965912	-0.011386	2.722519
149.714525	2136.562520	0.970917	-0.011497	2.728529
150.078448	2147.636983	0.975921	-0.011568	2.734535
150.614050	2158.608242	0.980926	-0.011671	2.740501
150.810649	2169.676536	0.985931	-0.011711	2.746450
151.304714	2180.652979	0.990936	-0.011806	2.752386
151.972939	2191.654997	0.995940	-0.011934	2.758352
152.315381	2202.715336	1.000945	-0.012001	2.764281
152.658878	2213.744081	1.005950	-0.012068	2.770182
153.258358	2224.733374	1.010954	-0.012184	2.776091
153.762141	2235.747666	1.015959	-0.012281	2.781984
154.508091	2246.774564	1.020964	-0.012423	2.787912
154.821794	2257.818899	1.025969	-0.012485	2.793765
155.183466	2268.816417	1.030973	-0.012556	2.799589
155.504118	2279.860193	1.035978	-0.012619	2.805418
156.215004	2290.842643	1.040983	-0.012755	2.811267
156.528803	2301.903077	1.045988	-0.012816	2.817079
156.851535	2312.912435	1.050992	-0.012880	2.822855
157.335363	2323.903267	1.055997	-0.012973	2.828635
157.863070	2334.937393	1.061002	-0.013075	2.834432
158.167256	2345.983418	1.066006	-0.013135	2.840188
158.725550	2356.962207	1.071011	-0.013242	2.845937
159.230146	2368.005956	1.076016	-0.013340	2.851700
159.612577	2379.003218	1.081021	-0.013414	2.857408
160.226150	2390.014532	1.086025	-0.013532	2.863148
160.830018	2401.041892	1.091030	-0.013648	2.868883
161.327833	2412.082409	1.096035	-0.013744	2.874597
161.757227	2423.089825	1.101039	-0.013827	2.880272
161.881698	2434.157728	1.106044	-0.013853	2.885918
162.228644	2445.138592	1.111049	-0.013921	2.891544
162.525877	2456.173761	1.116054	-0.013980	2.897178
163.119521	2467.138186	1.121058	-0.014094	2.902812
163.731020	2478.164994	1.126063	-0.014211	2.908469
164.403422	2489.198489	1.131068	-0.014340	2.914127
164.865017	2500.227760	1.136073	-0.014430	2.919740
165.314893	2511.238751	1.141077	-0.014517	2.925331
165.758894	2522.288731	1.146082	-0.014603	2.930930
165.976008	2533.275538	1.151087	-0.014646	2.936451
166.340401	2544.323725	1.156091	-0.014717	2.942016
166.681280	2555.307469	1.161096	-0.014784	2.947534
167.120865	2566.339475	1.166101	-0.014869	2.953080
167.569838	2577.335052	1.171106	-0.014956	2.958600
168.272316	2588.346231	1.176110	-0.015091	2.964155
169.050301	2599.373735	1.181115	-0.015239	2.969718
169.494472	2610.437550	1.186120	-0.015326	2.975239
169.872383	2621.431950	1.191125	-0.015399	2.980705
170.415920	2632.413517	1.196129	-0.015504	2.986180
171.151705	2643.455403	1.201134	-0.015645	2.991703
171.443634	2654.500902	1.206139	-0.015702	2.997151
171.655846	2665.499348	1.211143	-0.015745	3.002555
172.218066	2676.517070	1.216148	-0.015853	3.008010
172.685946	2687.527266	1.221153	-0.015943	3.013437
173.033025	2698.574793	1.226158	-0.016011	3.018855
173.271165	2709.586302	1.231162	-0.016059	3.024230
173.742419	2720.595607	1.236167	-0.016150	3.029628
174.100021	2731.613819	1.241172	-0.016220	3.035004
174.514952	2742.627700	1.246177	-0.016300	3.040377
174.943508	2753.639934	1.251181	-0.016383	3.045741
175.489267	2764.696243	1.256186	-0.016489	3.051134
176.118897	2775.640909	1.261191	-0.016609	3.056475
176.473321	2786.703035	1.266195	-0.016679	3.061824
176.916098	2797.705019	1.271200	-0.016765	3.067147
177.418059	2808.735851	1.276205	-0.016861	3.072483
177.841474	2819.743499	1.281210	-0.016944	3.077788
178.108677	2830.795925	1.286214	-0.016996	3.083083
178.395480	2841.795367	1.291219	-0.017053	3.088346
178.901937	2852.797622	1.296224	-0.017151	3.093632
179.250701	2863.839483	1.301228	-0.017219	3.098905
179.422244	2874.864937	1.306233	-0.017254	3.104138
179.895097	2885.859303	1.311238	-0.017345	3.109388
180.203051	2896.876938	1.316243	-0.017406	3.114618
180.706380	2907.900389	1.321247	-0.017503	3.119868
181.167454	2918.916100	1.326252	-0.017592	3.125101
181.648794	2929.936135	1.331257	-0.017685	3.130329
182.137274	2940.957642	1.336262	-0.017780	3.135550
182.551542	2951.952226	1.341266	-0.017860	3.140739
183.104562	2962.973013	1.346271	-0.017967	3.145951
183.696434	2973.989194	1.351276	-0.018080	3.151157
183.878562	2985.031152	1.356280	-0.018117	3.156311
184.367774	2996.020417	1.361285	-0.018212	3.161474
184.547971	3007.096844	1.366290	-0.018248	3.166626
184.933798	3018.042259	1.371295	-0.018323	3.171737
185.357844	3029.102922	1.376299	-0.018406	3.176899
185.718937	3040.086424	1.381304	-0.018476	3.182008
186.303825	3051.119964	1.386309	-0.018589	3.187161
186.920973	3062.117013	1.391314	-0.018707	3.192294
187.530226	3073.131974	1.396318	-0.018824	3.197425
188.239304	3084.164970	1.401323	-0.018960	3.202569
188.780721	3095.201465	1.406328	-0.019064	3.207685
189.177065	3106.180367	1.411332	-0.019142	3.212746
189.494437	3117.227275	1.416337	-0.019204	3.217821
189.737274	3128.245483	1.421342	-0.019252	3.222864
190.014122	3139.277573	1.426347	-0.019307	3.227910
190.548267	3150.259886	1.431351	-0.019410	3.232959
191.282410	3161.270616	1.436356	-0.019550	3.238039
192.214097	3172.278477	1.441361	-0.019728	3.243136
192.632823	3183.342735	1.446366	-0.019809	3.248183
193.133149	3194.326986	1.451370	-0.019906	3.253196
193.438131	3205.395178	1.456375	-0.019966	3.258215
193.785277	3216.353181	1.461380	-0.020033	3.263181
194.250793	3227.400918	1.466384	-0.020124	3.268195
194.647111	3238.404259	1.471389	-0.020201	3.273173
194.955580	3249.450565	1.476394	-0.020261	3.278151
195.355520	3260.437457	1.481399	-0.020339	3.283107
195.872225	3271.465518	1.486403	-0.020439	3.288088
196.296958	3282.478769	1.491408	-0.020521	3.293043
196.695329	3293.513028	1.496413	-0.020599	3.297997
197.257765	3304.490145	1.501417	-0.020707	3.302938
197.329832	3315.562264	1.506422	-0.020723	3.307853
197.519266	3326.549801	1.511427	-0.020761	3.312737
198.415522	3337.525157	1.516432	-0.020932	3.317697
199.200431	3348.550802	1.521436	-0.021082	3.322658
200.033091	3359.596516	1.526441	-0.021241	3.327626
200.135451	3370.619509	1.531446	-0.021263	3.332486
200.552752	3381.635198	1.536451	-0.021344	3.337374
200.949371	3392.641933	1.541455	-0.021421	3.342249
201.419017	3403.678086	1.546460	-0.021512	3.347138
201.683688	3414.669208	1.551465	-0.021565	3.351976
202.031624	3425.723186	1.556469	-0.021633	3.356843
202.293322	3436.701670	1.561474	-0.021684	3.361661
202.635157	3447.738980	1.566479	-0.021751	3.366506
203.335832	3458.717759	1.571484	-0.021886	3.371363
203.611216	3469.795507	1.576488	-0.021940	3.376204
204.238225	3480.726836	1.581493	-0.022060	3.381017
204.630348	3491.816565	1.586498	-0.022137	3.385864
205.010050	3502.803121	1.591503	-0.022211	3.390657
205.330250	3513.854057	1.596507	-0.022273	3.395464
205.692750	3524.825063	1.601512	-0.022344	3.400235
206.107860	3535.880678	1.606517	-0.022425	3.405041
206.468033	3546.861440	1.611521	-0.022495	3.409802
206.965470	3557.902029	1.616526	-0.022591	3.414599
207.352611	3568.895910	1.621531	-0.022667	3.419355
207.813941	3579.924326	1.626536	-0.022756	3.424128
208.174372	3590.955582	1.631540	-0.022826	3.428884
208.575687	3601.955304	1.636545	-0.022904	3.433624
209.194175	3612.960424	1.641550	-0.023023	3.438386
209.407952	3624.004333	1.646555	-0.023066	3.443110
210.002762	3635.005533	1.651559	-0.023180	3.447854
210.290038	3646.046110	1.656564	-0.023237	3.452572
210.742964	3657.021056	1.661569	-0.023325	3.457275
211.041987	3668.073648	1.666573	-0.023383	3.461986
211.376434	3679.074916	1.671578	-0.023449	3.466674
211.829224	3690.074451	1.676583	-0.023537	3.471368
212.695217	3701.071629	1.681588	-0.023702	3.476102
213.502361	3712.081442	1.686592	-0.023856	3.480828
214.030109	3723.153707	1.691597	-0.023958	3.485541
214.376117	3734.160865	1.696602	-0.024025	3.490200
214.758630	3745.155197	1.701606	-0.024100	3.494852
215.150210	3756.182963	1.706611	-0.024176	3.499512
215.673015	3767.198257	1.711616	-0.024277	3.504176
216.034849	3778.230625	1.716621	-0.024347	3.508822
216.435598	3789.225404	1.721625	-0.024425	3.513451
217.004340	3800.260710	1.726630	-0.024535	3.518109
217.400078	3811.260437	1.731635	-0.024612	3.522727
217.782071	3822.283960	1.736640	-0.024686	3.527347
218.173108	3833.290458	1.741644	-0.024762	3.531954
218.485797	3844.339677	1.746649	-0.024824	3.536565
218.803835	3855.325111	1.751654	-0.024886	3.541144
219.144155	3866.348540	1.756658	-0.024953	3.545735
219.558558	3877.348416	1.761663	-0.025033	3.550318
219.986390	3888.387331	1.766668	-0.025116	3.554913
220.314813	3899.393261	1.771673	-0.025181	3.559477
220.684071	3910.414048	1.776677	-0.025253	3.564046
221.042864	3921.446037	1.781682	-0.025323	3.568613
221.259190	3932.449142	1.786687	-0.025366	3.573146
221.663282	3943.451974	1.791692	-0.025445	3.577694
222.082848	3954.470383	1.796696	-0.025526	3.582244
222.921574	3965.464561	1.801701	-0.025686	3.586824
223.313109	3976.507200	1.806706	-0.025762	3.591369
223.644600	3987.522669	1.811710	-0.025827	3.595891
224.053004	3998.537949	1.816715	-0.025907	3.600415
224.392413	4009.551986	1.821720	-0.025973	3.604925
224.667689	4020.584093	1.826725	-0.026027	3.609430
224.959102	4031.581995	1.831729	-0.026085	3.613917
225.371488	4042.613447	1.836734	-0.026165	3.618425
225.972323	4053.590515	1.841739	-0.026280	3.622926
226.241324	4064.659601	1.846744	-0.026334	3.627423
226.586576	4075.628727	1.851748	-0.026401	3.631882
227.103697	4086.656999	1.856753	-0.026501	3.636377
227.306877	4097.722447	1.861758	-0.026542	3.640848
227.682523	4108.739088	1.866762	-0.026615	3.645313
227.888225	4119.765280	1.871767	-0.026656	3.649758
228.269457	4130.784638	1.876772	-0.026730	3.654213
228.676964	4141.770283	1.881777	-0.026810	3.658652
229.214707	4152.813600	1.886781	-0.026913	3.663122
229.770770	4163.842606	1.891786	-0.027020	3.667582
230.360592	4174.802255	1.896791	-0.027134	3.672013
230.729355	4185.853134	1.901795	-0.027206	3.676452
231.045046	4196.874236	1.906800	-0.027268	3.680868
231.426250	4207.884666	1.911805	-0.027342	3.685282
231.820078	4218.893530	1.916810	-0.027419	3.689690
232.138968	4229.903117	1.921814	-0.027481	3.694086
232.647510	4240.921721	1.926819	-0.027579	3.698500
233.101796	4251.949080	1.931824	-0.027667	3.702906
233.610865	4262.981285	1.936829	-0.027765	3.707314
234.217067	4273.939294	1.941833	-0.027882	3.711697
234.615818	4285.010552	1.946838	-0.027959	3.716099
235.072781	4295.979381	1.951843	-0.028048	3.720461
235.449265	4307.060199	1.956847	-0.028121	3.724854
235.590008	4318.030680	1.961852	-0.028150	3.729174
236.110264	4329.047555	1.966857	-0.028251	3.733546
236.475121	4340.054031	1.971862	-0.028322	3.737893
237.003937	4351.094523	1.976866	-0.028424	3.742264
