Wed Nov 23 18:28:15 2022

Number of Points = 2200
Depth (nm)	Load (µN)	Time (s)	Depth (V)	Load (V)
-1.213408	1.334688	0.000000	-0.018567	1.107484
0.000000	8.104867	0.005005	-0.018796	1.116990
1.177443	17.553018	0.010009	-0.019020	1.129875
2.237360	28.325772	0.015014	-0.019221	1.144255
2.958908	39.434874	0.020019	-0.019359	1.158725
3.804123	50.515671	0.025024	-0.019521	1.173036
4.659345	61.627607	0.030028	-0.019684	1.187218
5.339097	72.779771	0.035033	-0.019814	1.201202
5.954572	83.891778	0.040038	-0.019932	1.214948
6.603949	94.992360	0.045043	-0.020057	1.228541
7.068866	106.140113	0.050047	-0.020147	1.241961
7.547332	117.199989	0.055052	-0.020240	1.255140
8.115511	128.312329	0.060057	-0.020349	1.268280
16.948224	137.676919	0.065061	-0.022009	1.282732
18.334571	150.137818	0.070066	-0.022272	1.297449
19.279749	161.482073	0.075071	-0.022452	1.310574
20.525857	172.522162	0.080076	-0.022689	1.323352
21.528437	183.619808	0.085080	-0.022879	1.335973
22.962884	194.658631	0.090085	-0.023151	1.348582
23.868793	205.805490	0.095090	-0.023324	1.360984
24.410393	216.960157	0.100094	-0.023428	1.373140
25.550942	227.928451	0.105099	-0.023645	1.385221
26.946279	238.984590	0.110104	-0.023910	1.397386
27.726257	250.092634	0.115109	-0.024059	1.409268
28.642480	261.205900	0.120113	-0.024234	1.421106
29.293203	272.320801	0.125118	-0.024358	1.432750
29.994515	283.368126	0.130123	-0.024493	1.444249
30.733993	294.394637	0.135128	-0.024634	1.455650
31.587514	305.495104	0.140132	-0.024797	1.467077
32.618349	316.477803	0.145137	-0.024993	1.478361
33.789923	327.507803	0.150142	-0.025216	1.489656
34.615910	338.669997	0.155146	-0.025374	1.500873
35.380252	349.727918	0.160151	-0.025520	1.511883
36.447562	360.689904	0.165156	-0.025723	1.522826
37.722718	371.762222	0.170161	-0.025965	1.533867
38.523845	382.899591	0.175165	-0.026118	1.544729
39.471904	393.902348	0.180170	-0.026298	1.555437
40.272724	404.997094	0.185175	-0.026451	1.566108
41.723364	415.949480	0.190180	-0.026726	1.576790
42.594316	427.079682	0.195184	-0.026893	1.587373
43.496998	438.160207	0.200189	-0.027065	1.597850
44.213432	449.204423	0.205194	-0.027202	1.608164
45.204436	460.248817	0.210198	-0.027390	1.618501
45.755592	471.352410	0.215203	-0.027497	1.628685
46.730377	482.334915	0.220208	-0.027682	1.638831
47.401533	493.421139	0.225213	-0.027811	1.648911
48.122675	504.473253	0.230217	-0.027949	1.658915
48.934510	515.484555	0.235222	-0.028104	1.668850
49.631613	526.569376	0.240227	-0.028238	1.678756
50.443070	537.591615	0.245232	-0.028393	1.688583
51.264308	548.629042	0.250236	-0.028549	1.698370
52.143820	559.645647	0.255241	-0.028717	1.708099
53.384338	570.665716	0.260246	-0.028953	1.717885
54.147650	581.775202	0.265250	-0.029099	1.727548
55.303071	592.742970	0.270255	-0.029318	1.737154
56.101189	603.845457	0.275260	-0.029471	1.746713
56.869640	614.902517	0.280265	-0.029618	1.756174
57.558396	625.939040	0.285269	-0.029750	1.765544
58.609452	636.955372	0.290274	-0.029950	1.774952
59.212247	648.061983	0.295279	-0.030065	1.784254
60.134795	659.001974	0.300283	-0.030241	1.793464
60.961938	670.115154	0.305288	-0.030399	1.802740
61.816208	681.121304	0.310293	-0.030562	1.811889
62.823073	692.124171	0.315298	-0.030754	1.821032
63.837489	703.196211	0.320302	-0.030947	1.830187
64.547425	714.269066	0.325307	-0.031083	1.839211
65.278915	725.290675	0.330312	-0.031223	1.848156
66.258472	736.301856	0.335317	-0.031409	1.857118
66.941515	747.403221	0.340321	-0.031540	1.866026
67.682381	758.392003	0.345326	-0.031682	1.874819
68.231127	769.489524	0.350331	-0.031788	1.883604
68.598213	780.540924	0.355335	-0.031859	1.892263
69.592269	791.478637	0.360340	-0.032049	1.900962
70.106066	802.572699	0.365345	-0.032148	1.909614
71.066925	813.578261	0.370350	-0.032331	1.918277
71.687792	824.633465	0.375354	-0.032450	1.926848
72.133999	835.715081	0.380359	-0.032536	1.935356
72.596727	846.719136	0.385364	-0.032626	1.943772
73.456768	857.695761	0.390369	-0.032790	1.952235
74.097739	868.773710	0.395373	-0.032913	1.960679
74.829095	879.788446	0.400378	-0.033053	1.969063
75.685458	890.813839	0.405383	-0.033217	1.977451
76.505201	901.831361	0.410387	-0.033373	1.985788
77.258073	912.902695	0.415392	-0.033517	1.994113
77.826628	923.951890	0.420397	-0.033627	2.002340
78.492176	934.943950	0.425402	-0.033754	2.010516
79.433019	945.977209	0.430406	-0.033933	2.018757
79.917296	957.042143	0.435411	-0.034027	2.026873
80.580203	968.065298	0.440416	-0.034154	2.034972
81.192386	979.090873	0.445421	-0.034272	2.043027
82.085644	990.083124	0.450425	-0.034442	2.051095
82.713953	1001.152587	0.455430	-0.034563	2.059121
83.320535	1012.197321	0.460435	-0.034679	2.067093
83.916173	1023.221378	0.465439	-0.034794	2.075018
84.515524	1034.258114	0.470444	-0.034909	2.082921
85.429166	1045.258677	0.475449	-0.035083	2.090845
86.269372	1056.303763	0.480454	-0.035243	2.098751
87.035220	1067.303804	0.485458	-0.035390	2.106579
87.748263	1078.385404	0.490463	-0.035526	2.114421
88.327229	1089.405925	0.495468	-0.035638	2.122161
88.903573	1100.432945	0.500472	-0.035749	2.129876
89.664920	1111.455158	0.505477	-0.035894	2.137602
90.290604	1122.484456	0.510482	-0.036014	2.145274
91.021685	1133.490872	0.515487	-0.036154	2.152928
91.611224	1144.566077	0.520491	-0.036268	2.160567
92.246755	1155.550682	0.525496	-0.036390	2.168129
92.968869	1166.624790	0.530501	-0.036528	2.175745
93.704115	1177.587877	0.535506	-0.036669	2.183262
94.349904	1188.668676	0.540510	-0.036792	2.190811
94.698146	1199.707602	0.545515	-0.036861	2.198240
95.754346	1210.667245	0.550520	-0.037061	2.205749
96.431013	1221.743410	0.555524	-0.037191	2.213225
96.911830	1232.770797	0.560529	-0.037284	2.220600
97.553110	1243.791797	0.565534	-0.037407	2.227982
98.349909	1254.810936	0.570539	-0.037559	2.235371
98.808365	1265.850046	0.575543	-0.037648	2.242676
99.293960	1276.900744	0.580548	-0.037742	2.249969
99.975057	1287.901243	0.585553	-0.037873	2.257249
100.644758	1298.927464	0.590558	-0.038001	2.264520
101.309712	1309.926308	0.595562	-0.038128	2.271748
101.833433	1320.996518	0.600567	-0.038229	2.278968
102.339976	1332.011966	0.605572	-0.038327	2.286127
103.078575	1342.995258	0.610576	-0.038469	2.293292
103.825016	1354.044448	0.615581	-0.038611	2.300479
104.263942	1365.108196	0.620586	-0.038696	2.307586
104.812965	1376.113798	0.625591	-0.038802	2.314659
105.351481	1387.123213	0.630595	-0.038906	2.321709
105.942279	1398.160324	0.635600	-0.039020	2.328767
106.545349	1409.176891	0.640605	-0.039135	2.335792
107.002867	1420.227747	0.645610	-0.039224	2.342788
107.579799	1431.223135	0.650614	-0.039335	2.349753
108.026955	1442.265767	0.655619	-0.039422	2.356699
108.514203	1453.295615	0.660624	-0.039516	2.363626
108.935097	1464.322231	0.665628	-0.039597	2.370516
109.528294	1475.314604	0.670633	-0.039711	2.377400
110.100447	1486.374731	0.675638	-0.039822	2.384302
110.548467	1497.373749	0.680643	-0.039908	2.391121
111.107300	1508.411717	0.685647	-0.040016	2.397966
111.555738	1519.428685	0.690652	-0.040103	2.404757
111.956587	1530.475591	0.695657	-0.040181	2.411537
112.548501	1541.455334	0.700661	-0.040295	2.418295
113.137712	1552.493757	0.705666	-0.040408	2.425069
113.688968	1563.511399	0.710671	-0.040514	2.431804
114.295496	1574.557190	0.715676	-0.040631	2.438548
114.780219	1585.550424	0.720680	-0.040724	2.445218
115.563530	1596.584830	0.725685	-0.040874	2.451953
115.872627	1607.637608	0.730690	-0.040935	2.458587
116.352189	1618.630864	0.735695	-0.041027	2.465202
116.900895	1629.660362	0.740699	-0.041133	2.471833
117.041586	1640.739204	0.745704	-0.041162	2.478397
117.249803	1651.711462	0.750709	-0.041204	2.484894
118.213997	1662.701424	0.755713	-0.041388	2.491528
118.703857	1673.741784	0.760718	-0.041482	2.498084
119.532930	1684.742248	0.765723	-0.041641	2.504663
119.893828	1695.813716	0.770728	-0.041711	2.511178
120.283357	1706.839794	0.775732	-0.041787	2.517655
120.590633	1717.844002	0.780737	-0.041847	2.524087
121.188562	1728.865272	0.785742	-0.041962	2.530567
121.712850	1739.880036	0.790747	-0.042063	2.537012
122.318505	1750.898388	0.795751	-0.042180	2.543458
122.866887	1761.917132	0.800756	-0.042285	2.549878
123.544045	1772.926488	0.805761	-0.042415	2.556299
124.133523	1783.989411	0.810765	-0.042528	2.562718
124.547167	1795.003683	0.815770	-0.042609	2.569062
125.054759	1806.061557	0.820775	-0.042707	2.575431
125.315695	1817.075704	0.825780	-0.042758	2.581715
125.598547	1828.070182	0.830784	-0.042814	2.587977
126.087843	1839.084334	0.835789	-0.042909	2.594272
126.419937	1850.115903	0.840794	-0.042974	2.600533
127.008020	1861.093197	0.845799	-0.043087	2.606794
127.764010	1872.135667	0.850803	-0.043231	2.613106
128.300399	1883.161159	0.855808	-0.043335	2.619355
128.784240	1894.171795	0.860813	-0.043428	2.625570
129.516362	1905.197589	0.865817	-0.043568	2.631824
129.951842	1916.213040	0.870822	-0.043653	2.638004
130.573981	1927.249248	0.875827	-0.043772	2.644214
130.865577	1938.295432	0.880832	-0.043830	2.650356
131.189868	1949.329985	0.885836	-0.043893	2.656484
131.377500	1960.318504	0.890841	-0.043931	2.662548
132.019781	1971.319474	0.895846	-0.044055	2.668685
132.575162	1982.334092	0.900850	-0.044162	2.674799
132.838095	1993.410993	0.905855	-0.044214	2.680883
133.477622	2004.371366	0.910860	-0.044336	2.686954
134.059651	2015.425058	0.915865	-0.044448	2.693053
134.435526	2026.415489	0.920869	-0.044522	2.699067
134.967627	2037.459199	0.925874	-0.044624	2.705124
135.488842	2048.457558	0.930879	-0.044725	2.711141
136.251732	2059.453203	0.935884	-0.044870	2.717183
136.636599	2070.505797	0.940888	-0.044945	2.723179
137.022809	2081.525035	0.945893	-0.045021	2.729144
137.390799	2092.541250	0.950898	-0.045092	2.735091
137.974892	2103.547569	0.955902	-0.045205	2.741056
138.155591	2114.588643	0.960907	-0.045241	2.746959
138.583191	2125.605863	0.965912	-0.045324	2.752878
138.990668	2136.604649	0.970917	-0.045404	2.758771
139.425582	2147.655560	0.975921	-0.045488	2.764683
139.943030	2158.632609	0.980926	-0.045588	2.770557
140.392586	2169.679126	0.985931	-0.045675	2.776444
140.617242	2180.703668	0.990936	-0.045720	2.782270
141.181128	2191.695503	0.995940	-0.045828	2.788122
141.639425	2202.736799	1.000945	-0.045917	2.793970
142.206739	2213.751154	1.005950	-0.046026	2.799809
142.475376	2224.781095	1.010954	-0.046079	2.805596
143.137597	2235.782440	1.015959	-0.046206	2.811420
143.439777	2246.846048	1.020964	-0.046266	2.817205
143.853699	2257.806990	1.025969	-0.046346	2.822944
144.258684	2268.862490	1.030973	-0.046425	2.828718
144.825318	2279.859592	1.035978	-0.046534	2.834476
145.218006	2290.895774	1.040983	-0.046610	2.840214
145.390426	2301.925884	1.045988	-0.046645	2.845903
145.851617	2312.941757	1.050992	-0.046735	2.851619
146.382532	2323.918476	1.055997	-0.046837	2.857314
146.857030	2334.956523	1.061002	-0.046929	2.863020
147.229280	2345.995801	1.066006	-0.047001	2.868700
147.416730	2357.023123	1.071011	-0.047039	2.874333
147.748198	2368.036139	1.076016	-0.047104	2.879970
148.000368	2379.054065	1.081021	-0.047154	2.885586
148.331207	2390.090702	1.086025	-0.047219	2.891213
148.941886	2401.064874	1.091030	-0.047336	2.896840
149.708624	2412.059990	1.096035	-0.047483	2.902491
149.992346	2423.124107	1.101039	-0.047539	2.908091
150.305588	2434.158490	1.106044	-0.047600	2.913670
150.559909	2445.161764	1.111049	-0.047651	2.919214
151.113312	2456.157775	1.116054	-0.047757	2.924789
151.409144	2467.205478	1.121058	-0.047816	2.930340
151.715033	2478.217394	1.126063	-0.047876	2.935864
152.255448	2489.205006	1.131068	-0.047980	2.941401
152.874764	2500.233525	1.136073	-0.048099	2.946959
153.392878	2511.257389	1.141077	-0.048199	2.952489
153.779578	2522.299897	1.146082	-0.048274	2.957999
154.238250	2533.293473	1.151087	-0.048363	2.963485
154.814079	2544.317014	1.156091	-0.048474	2.968992
155.087117	2555.360801	1.161096	-0.048528	2.974454
155.545514	2566.346337	1.166101	-0.048616	2.979905
155.854205	2577.381648	1.171106	-0.048677	2.985349
156.580095	2588.381621	1.176110	-0.048816	2.990826
156.805186	2599.431370	1.181115	-0.048861	2.996244
157.257985	2610.423962	1.186120	-0.048949	3.001657
157.637617	2621.443427	1.191125	-0.049022	3.007063
158.124465	2632.461310	1.196129	-0.049117	3.012474
158.470868	2643.484794	1.201134	-0.049184	3.017858
158.940974	2654.501675	1.206139	-0.049275	3.023247
159.208109	2665.546932	1.211143	-0.049328	3.028610
159.635343	2676.526575	1.216148	-0.049411	3.033955
160.013819	2687.555568	1.221153	-0.049485	3.039307
160.457637	2698.576468	1.226158	-0.049571	3.044656
160.751758	2709.620710	1.231162	-0.049629	3.049984
161.142152	2720.621934	1.236167	-0.049705	3.055297
161.492644	2731.619882	1.241172	-0.049773	3.060593
162.033279	2742.638526	1.246177	-0.049877	3.065916
162.501301	2753.659023	1.251181	-0.049968	3.071220
162.841133	2764.677828	1.256186	-0.050034	3.076497
163.165731	2775.715817	1.261191	-0.050098	3.081771
163.579986	2786.720109	1.266195	-0.050178	3.087033
163.789244	2797.749956	1.271200	-0.050220	3.092269
163.961262	2808.769947	1.276205	-0.050255	3.097487
164.395888	2819.763096	1.281210	-0.050340	3.102719
164.516428	2830.824619	1.286214	-0.050365	3.107931
164.783175	2841.809142	1.291219	-0.050418	3.113119
165.203948	2852.818351	1.296224	-0.050499	3.118331
165.567988	2863.833688	1.301228	-0.050571	3.123528
166.235166	2874.861123	1.306233	-0.050698	3.128765
166.765245	2885.860756	1.311238	-0.050801	3.133960
167.261332	2896.890514	1.316243	-0.050896	3.139157
167.590915	2907.913789	1.321247	-0.050961	3.144318
167.945602	2918.944140	1.326252	-0.051030	3.149478
168.193435	2929.939094	1.331257	-0.051080	3.154599
168.578862	2940.980324	1.336262	-0.051155	3.159751
168.732664	2951.993716	1.341266	-0.051186	3.164851
169.322401	2963.017451	1.346271	-0.051300	3.170006
169.488347	2974.009104	1.351276	-0.051333	3.175081
170.059753	2985.015663	1.356280	-0.051443	3.180208
170.550190	2996.032058	1.361285	-0.051538	3.185321
171.079570	3007.069025	1.366290	-0.051640	3.190440
171.178882	3018.101886	1.371295	-0.051662	3.195492
171.740254	3029.107544	1.376299	-0.051770	3.200585
171.981605	3040.108624	1.381304	-0.051818	3.205625
172.473769	3051.156494	1.386309	-0.051913	3.210712
172.607310	3062.157291	1.391314	-0.051940	3.215721
173.114064	3073.160789	1.396318	-0.052038	3.220773
173.660863	3084.158111	1.401323	-0.052144	3.225820
173.968762	3095.221953	1.406328	-0.052204	3.230857
174.271964	3106.220899	1.411332	-0.052264	3.235857
174.725191	3117.223888	1.416337	-0.052352	3.240870
175.269817	3128.271649	1.421342	-0.052456	3.245907
175.520722	3139.282860	1.426347	-0.052506	3.250882
175.852771	3150.269121	1.431351	-0.052571	3.255848
176.291982	3161.313734	1.436356	-0.052656	3.260847
176.454378	3172.336026	1.441361	-0.052690	3.265792
176.964024	3183.355125	1.446366	-0.052788	3.270773
177.134132	3194.364294	1.451370	-0.052823	3.275699
177.500005	3205.369513	1.456375	-0.052894	3.280640
177.706924	3216.418678	1.461380	-0.052936	3.285573
178.121076	3227.422166	1.466384	-0.053016	3.290505
178.540265	3238.391751	1.471389	-0.053097	3.295414
178.968922	3249.435495	1.476394	-0.053181	3.300351
179.135356	3260.490620	1.481399	-0.053214	3.305251
179.437500	3271.483455	1.486403	-0.053274	3.310135
179.814063	3282.484532	1.491408	-0.053347	3.315023
180.394373	3293.500757	1.496413	-0.053459	3.319937
180.821127	3304.529566	1.501417	-0.053542	3.324829
181.239063	3315.521917	1.506422	-0.053623	3.329697
181.491326	3326.568205	1.511427	-0.053673	3.334561
181.765333	3337.586130	1.516432	-0.053727	3.339409
182.009146	3348.593739	1.521436	-0.053776	3.344241
182.341535	3359.637792	1.526441	-0.053841	3.349092
182.437463	3370.615203	1.531446	-0.053861	3.353879
183.052986	3381.641707	1.536451	-0.053980	3.358743
183.266240	3392.677258	1.541455	-0.054022	3.363555
183.730233	3403.657892	1.546460	-0.054112	3.368367
184.053222	3414.694125	1.551465	-0.054175	3.373179
184.320468	3425.713539	1.556469	-0.054228	3.377970
184.861228	3436.716698	1.561474	-0.054333	3.382780
185.141896	3447.750537	1.566479	-0.054388	3.387566
185.246160	3458.773834	1.571484	-0.054410	3.392318
185.691045	3469.755002	1.576488	-0.054496	3.397087
186.114415	3480.806098	1.581493	-0.054579	3.401876
186.575437	3491.791946	1.586498	-0.054668	3.406635
186.708132	3502.862779	1.591503	-0.054695	3.411384
187.086939	3513.818762	1.596507	-0.054769	3.416107
187.518437	3524.857009	1.601512	-0.054853	3.420865
188.059169	3535.861015	1.606517	-0.054957	3.425614
188.232819	3546.905094	1.611521	-0.054992	3.430330
188.687334	3557.897312	1.616526	-0.055080	3.435051
189.100133	3568.921011	1.621531	-0.055161	3.439774
189.490085	3579.942201	1.626536	-0.055237	3.444486
189.802102	3590.998086	1.631540	-0.055298	3.449198
190.327318	3601.939754	1.636545	-0.055399	3.453879
190.661095	3612.996010	1.641550	-0.055464	3.458580
190.993652	3623.992294	1.646555	-0.055530	3.463249
191.259127	3635.034002	1.651559	-0.055582	3.467924
191.473461	3646.020060	1.656564	-0.055625	3.472562
191.810145	3657.040435	1.661569	-0.055691	3.477223
192.291075	3668.070071	1.666573	-0.055784	3.481898
192.584997	3679.107765	1.671578	-0.055842	3.486549
192.883105	3690.086041	1.676583	-0.055900	3.491169
193.036701	3701.137217	1.681588	-0.055932	3.495796
193.314204	3712.126731	1.686592	-0.055987	3.500406
193.595260	3723.142040	1.691597	-0.056042	3.505021
194.082381	3734.150018	1.696602	-0.056136	3.509650
194.463501	3745.185170	1.701606	-0.056211	3.514272
194.665221	3756.214457	1.706611	-0.056251	3.518866
194.897777	3767.222071	1.711616	-0.056298	3.523448
195.359929	3778.238086	1.716621	-0.056387	3.528053
195.669210	3789.240584	1.721625	-0.056448	3.532629
196.177649	3800.247857	1.726630	-0.056546	3.537223
196.496813	3811.266290	1.731635	-0.056609	3.541795
196.937807	3822.299887	1.736640	-0.056694	3.546381
197.183114	3833.317877	1.741644	-0.056743	3.550932
197.516711	3844.312799	1.746649	-0.056808	3.555478
197.812028	3855.357543	1.751654	-0.056866	3.560034
198.220200	3866.341396	1.756658	-0.056946	3.564572
198.514971	3877.386047	1.761663	-0.057004	3.569117
198.640607	3888.387693	1.766668	-0.057030	3.573619
198.971686	3899.419726	1.771673	-0.057095	3.578151
199.387670	3910.395024	1.776677	-0.057176	3.582663
199.758879	3921.434136	1.781682	-0.057248	3.587190
200.075188	3932.429820	1.786687	-0.057310	3.591688
200.222733	3943.496040	1.791692	-0.057340	3.596190
200.776193	3954.469140	1.796696	-0.057447	3.600693
201.120758	3965.505765	1.801701	-0.057514	3.605193
201.606316	3976.496668	1.806706	-0.057608	3.609685
201.791025	3987.532624	1.811710	-0.057646	3.614156
202.192102	3998.554612	1.816715	-0.057724	3.618640
202.359429	4009.563156	1.821720	-0.057758	3.623088
202.795621	4020.571112	1.826725	-0.057842	3.627558
203.042829	4031.586864	1.831729	-0.057891	3.632006
203.479940	4042.607594	1.836734	-0.057976	3.636470
203.866954	4053.628142	1.841739	-0.058051	3.640924
204.065736	4064.638605	1.846744	-0.058092	3.645348
204.258991	4075.660163	1.851748	-0.058130	3.649771
204.537293	4086.674514	1.856753	-0.058185	3.654194
204.806259	4097.711178	1.861758	-0.058239	3.658620
205.365377	4108.749842	1.866762	-0.058346	3.663071
205.628003	4119.803747	1.871767	-0.058398	3.667492
206.062178	4130.763456	1.876772	-0.058482	3.671888
206.285655	4141.815308	1.881777	-0.058527	3.676294
206.844926	4152.777299	1.886781	-0.058635	3.680693
207.161580	4163.846092	1.891786	-0.058697	3.685104
207.551097	4174.822501	1.896791	-0.058773	3.689481
207.700872	4185.873793	1.901795	-0.058804	3.693857
208.210939	4196.868583	1.906800	-0.058902	3.698243
208.226519	4207.917800	1.911805	-0.058908	3.702594
208.710577	4218.901596	1.916810	-0.059001	3.706963
209.043583	4229.911607	1.921814	-0.059066	3.711321
209.440548	4240.937434	1.926819	-0.059144	3.715686
209.533796	4251.975254	1.931824	-0.059164	3.720020
209.822825	4262.938031	1.936829	-0.059221	3.724340
210.267502	4273.997562	1.941833	-0.059307	3.728708
210.724901	4284.951968	1.946838	-0.059396	3.733031
211.031515	4296.043933	1.951843	-0.059456	3.737388
211.244720	4307.019115	1.956847	-0.059499	3.741684
211.357785	4318.071316	1.961852	-0.059523	3.745996
211.617575	4329.048126	1.966857	-0.059574	3.750287
