Wed Nov 23 18:09:14 2022

Number of Points = 2200
Depth (nm)	Load (µN)	Time (s)	Depth (V)	Load (V)
-22.338494	0.158109	0.000000	0.031572	0.965752
0.000000	2.064542	0.005005	0.027380	0.981188
14.915831	12.501290	0.010009	0.024579	1.004880
22.980597	24.861087	0.015014	0.023063	1.027133
27.714558	37.147797	0.020019	0.022171	1.047072
30.629707	49.003521	0.025024	0.021621	1.065110
32.281157	60.571331	0.030028	0.021309	1.081819
33.398005	71.947590	0.035033	0.021096	1.097751
34.380695	83.145285	0.040038	0.020909	1.113152
35.319903	94.324599	0.045043	0.020730	1.128298
36.009268	105.501629	0.050047	0.020598	1.143121
36.827717	116.603000	0.055052	0.020442	1.157717
37.355305	127.766662	0.060057	0.020340	1.172076
38.007312	138.884017	0.065061	0.020215	1.186259
38.591576	149.987165	0.070066	0.020102	1.200227
39.220026	161.106950	0.075071	0.019982	1.214073
39.697284	172.221054	0.080076	0.019889	1.227690
41.583910	182.859495	0.085080	0.019533	1.241204
48.980524	193.146950	0.090085	0.018142	1.256520
52.173096	204.731941	0.095090	0.017540	1.271372
53.837357	216.274300	0.100094	0.017225	1.285363
55.732548	227.411332	0.105099	0.016867	1.298838
57.366701	238.571860	0.110104	0.016557	1.312094
58.814990	249.665779	0.115109	0.016283	1.325066
60.336409	260.745073	0.120113	0.015995	1.337925
61.960772	271.798864	0.125118	0.015687	1.350673
63.419990	282.919958	0.130123	0.015411	1.363310
64.664772	294.053655	0.135128	0.015174	1.375759
65.802466	305.141837	0.140132	0.014958	1.388007
67.174621	316.172121	0.145137	0.014698	1.400175
68.173706	327.298296	0.150142	0.014508	1.412197
69.522403	338.305928	0.155146	0.014252	1.424124
70.975543	349.353969	0.160151	0.013976	1.436032
72.241338	360.521396	0.165156	0.013736	1.447894
73.098011	371.602453	0.170161	0.013573	1.459423
74.285597	382.614525	0.175165	0.013347	1.470911
75.269682	393.725318	0.180170	0.013160	1.482335
76.690827	404.693976	0.185175	0.012890	1.493685
77.656647	415.840795	0.190180	0.012706	1.504964
79.066376	426.835561	0.195184	0.012439	1.516165
80.176686	437.935422	0.200189	0.012228	1.527281
81.143653	449.045971	0.205194	0.012044	1.538277
81.868107	460.095213	0.210198	0.011905	1.549053
83.016488	471.122369	0.215203	0.011687	1.559878
84.223319	482.149269	0.220208	0.011458	1.570646
85.118758	493.261629	0.225213	0.011287	1.581316
86.019760	504.320182	0.230217	0.011115	1.591866
87.180413	515.311768	0.235222	0.010895	1.602370
88.293169	526.381070	0.240227	0.010683	1.612861
89.122341	537.503012	0.245232	0.010525	1.623239
89.984921	548.486177	0.250236	0.010360	1.633436
91.306717	559.508923	0.255241	0.010109	1.643751
92.025966	570.635675	0.260246	0.009972	1.653904
93.226562	581.599639	0.265250	0.009744	1.664001
94.073998	592.731412	0.270255	0.009582	1.674074
95.095486	603.724200	0.275260	0.009388	1.684019
95.773308	614.831968	0.280265	0.009258	1.693899
96.847858	625.821590	0.285269	0.009053	1.703740
97.793040	636.877082	0.290274	0.008873	1.713542
98.784370	647.906052	0.295279	0.008685	1.723279
99.951060	658.940553	0.300283	0.008463	1.733018
100.916034	670.009657	0.305288	0.008279	1.742671
101.910740	681.041249	0.310293	0.008090	1.752248
102.893129	692.105539	0.315298	0.007903	1.761796
103.833136	703.122261	0.320302	0.007723	1.771240
104.713596	714.216227	0.325307	0.007556	1.780680
105.368389	725.258649	0.330312	0.007430	1.789962
106.056383	736.304849	0.335317	0.007298	1.799209
106.809040	747.309925	0.340321	0.007154	1.808393
107.762359	758.355753	0.345326	0.006973	1.817620
108.503036	769.396802	0.350331	0.006831	1.826737
109.615361	780.395375	0.355335	0.006619	1.835877
110.695586	791.445817	0.360340	0.006414	1.845005
111.395339	802.532126	0.365345	0.006280	1.854010
112.242893	813.542094	0.370350	0.006118	1.862952
113.197804	824.566130	0.375354	0.005936	1.871891
114.050060	835.629930	0.380359	0.005774	1.880790
114.688750	846.688818	0.385364	0.005651	1.889585
115.454832	857.710822	0.390369	0.005505	1.898345
116.232292	868.739400	0.395373	0.005356	1.907073
116.590398	879.831221	0.400378	0.005286	1.915697
117.381286	890.802399	0.405383	0.005135	1.924305
117.986559	901.876302	0.410387	0.005019	1.932904
118.890015	912.865379	0.415392	0.004846	1.941478
119.568080	923.887343	0.420397	0.004716	1.949980
120.571557	934.941193	0.425402	0.004525	1.958553
121.220566	945.993477	0.430406	0.004401	1.966996
121.928172	957.021739	0.435411	0.004265	1.975399
122.830252	968.004393	0.440416	0.004093	1.983783
123.813689	979.047779	0.445421	0.003906	1.992196
124.408747	990.146609	0.450425	0.003792	2.000516
125.058708	1001.154492	0.455430	0.003667	2.008749
125.682185	1012.210918	0.460435	0.003547	2.016976
126.513874	1023.189519	0.465439	0.003388	2.025165
127.491858	1034.222781	0.470444	0.003202	2.033397
128.097990	1045.300585	0.475449	0.003086	2.041535
128.758474	1056.312860	0.480454	0.002959	2.049607
129.377564	1067.381642	0.485458	0.002840	2.057678
129.774580	1078.420107	0.490463	0.002763	2.065641
130.898493	1089.338042	0.495468	0.002549	2.073663
131.736403	1100.448361	0.500472	0.002389	2.081722
132.362832	1111.467056	0.505477	0.002269	2.089634
132.716770	1122.560143	0.510482	0.002200	2.097502
133.367417	1133.525799	0.515487	0.002075	2.105323
134.123544	1144.563351	0.520491	0.001931	2.113190
134.992354	1155.576063	0.525496	0.001765	2.121036
135.505219	1166.625266	0.530501	0.001666	2.128795
136.127538	1177.660642	0.535506	0.001546	2.136541
136.471689	1188.718374	0.540510	0.001479	2.144210
137.230669	1199.704744	0.545515	0.001334	2.151899
137.938148	1210.715971	0.550520	0.001198	2.159565
138.794692	1221.727763	0.555524	0.001035	2.167238
139.350623	1232.851755	0.560529	0.000928	2.174891
139.877420	1243.832114	0.565534	0.000826	2.182414
140.254999	1254.873524	0.570539	0.000753	2.189917
140.798198	1265.877305	0.575543	0.000648	2.197408
141.337352	1276.927293	0.580548	0.000544	2.204902
142.100020	1287.916583	0.585553	0.000398	2.212380
142.455332	1299.004546	0.590558	0.000329	2.219808
143.283013	1309.929813	0.595562	0.000171	2.227208
143.930421	1321.032973	0.600567	0.000047	2.234660
144.613455	1332.017716	0.605572	-0.000084	2.242018
145.331977	1343.064879	0.610576	-0.000222	2.249400
145.833674	1354.133697	0.615581	-0.000319	2.256724
146.279485	1365.141085	0.620586	-0.000405	2.263972
146.677575	1376.163535	0.625591	-0.000482	2.271197
147.209253	1387.173484	0.630595	-0.000585	2.278419
148.028154	1398.178512	0.635600	-0.000741	2.285677
148.426794	1409.240416	0.640605	-0.000819	2.292858
149.013778	1420.251906	0.645610	-0.000932	2.300024
149.475824	1431.281949	0.650614	-0.001021	2.307153
149.979959	1442.318108	0.655619	-0.001118	2.314273
150.372540	1453.338318	0.660624	-0.001195	2.321337
151.087392	1464.335194	0.665628	-0.001332	2.328432
151.761128	1475.369993	0.670633	-0.001461	2.335521
152.069643	1486.445465	0.675638	-0.001522	2.342538
152.708078	1497.408866	0.680643	-0.001644	2.349532
153.356983	1508.436059	0.685647	-0.001769	2.356546
153.911141	1519.480993	0.690652	-0.001875	2.363532
154.595365	1530.487516	0.695657	-0.002006	2.370499
155.088809	1541.535646	0.700661	-0.002102	2.377433
155.520394	1552.574346	0.705666	-0.002185	2.384327
156.088891	1563.544105	0.710671	-0.002295	2.391188
156.802631	1574.588170	0.715676	-0.002431	2.398103
157.365900	1585.609381	0.720680	-0.002540	2.404953
157.928902	1596.662722	0.725685	-0.002648	2.411804
158.266311	1607.682819	0.730690	-0.002714	2.418570
158.595509	1618.704755	0.735695	-0.002779	2.425316
159.171880	1629.723126	0.740699	-0.002890	2.432090
159.795512	1640.728824	0.745704	-0.003009	2.438847
160.402721	1651.741718	0.750709	-0.003126	2.445587
160.731643	1662.834676	0.755713	-0.003191	2.452300
161.181240	1673.803524	0.760718	-0.003278	2.458945
161.841030	1684.812221	0.765723	-0.003404	2.465637
162.133083	1695.879222	0.770728	-0.003462	2.472273
162.622292	1706.895533	0.775732	-0.003556	2.478900
163.020635	1717.893925	0.780737	-0.003634	2.485480
163.584433	1728.927321	0.785742	-0.003742	2.492096
164.311933	1739.938976	0.790747	-0.003881	2.498712
164.733608	1750.964574	0.795751	-0.003963	2.505261
165.276549	1761.991772	0.800756	-0.004068	2.511816
165.776831	1773.013916	0.805761	-0.004164	2.518343
166.390705	1784.033685	0.810765	-0.004282	2.524873
166.807985	1795.070570	0.815770	-0.004363	2.531359
167.208692	1806.097185	0.820775	-0.004441	2.537819
167.677891	1817.080280	0.825780	-0.004532	2.544251
168.143223	1828.137029	0.830784	-0.004622	2.550707
168.806679	1839.106882	0.835789	-0.004749	2.557134
169.483586	1850.189004	0.840794	-0.004879	2.563612
170.090771	1861.162914	0.845799	-0.004996	2.569998
170.540288	1872.263366	0.850803	-0.005083	2.576411
171.288385	1883.212637	0.855808	-0.005226	2.582777
171.794603	1894.260461	0.860813	-0.005324	2.589139
172.367782	1905.255598	0.865817	-0.005434	2.595467
172.812575	1916.300690	0.870822	-0.005520	2.601785
173.219189	1927.338306	0.875827	-0.005599	2.608076
173.743480	1938.322933	0.880832	-0.005700	2.614344
174.446766	1949.332613	0.885836	-0.005835	2.620642
174.923655	1960.385874	0.890841	-0.005927	2.626909
175.496682	1971.402449	0.895846	-0.006037	2.633158
175.788087	1982.441688	0.900850	-0.006095	2.639354
176.237541	1993.439191	0.905855	-0.006182	2.645540
176.759642	2004.461643	0.910860	-0.006283	2.651739
177.401694	2015.481494	0.915865	-0.006406	2.657942
177.756152	2026.500267	0.920869	-0.006475	2.664080
178.112246	2037.542700	0.925874	-0.006545	2.670217
178.475784	2048.561385	0.930879	-0.006616	2.676328
179.034344	2059.513698	0.935884	-0.006723	2.682422
179.757177	2070.547777	0.940888	-0.006861	2.688576
180.228641	2081.587236	0.945893	-0.006953	2.694675
180.573964	2092.624365	0.950898	-0.007020	2.700737
180.856080	2103.626636	0.955902	-0.007076	2.706755
181.345968	2114.673091	0.960907	-0.007170	2.712820
181.819311	2125.637873	0.965912	-0.007262	2.718824
182.343099	2136.687001	0.970917	-0.007363	2.724868
182.878296	2147.708934	0.975921	-0.007466	2.730887
183.178730	2158.748688	0.980926	-0.007525	2.736861
183.608501	2169.746663	0.985931	-0.007609	2.742823
184.192445	2180.732448	0.990936	-0.007721	2.748790
184.679276	2191.762730	0.995940	-0.007815	2.754752
185.532098	2202.782831	1.000945	-0.007978	2.760756
186.092343	2213.820023	1.005950	-0.008086	2.766707
186.488905	2224.875018	1.010954	-0.008163	2.772628
186.884977	2235.838394	1.015959	-0.008240	2.778488
187.613731	2246.859694	1.020964	-0.008379	2.784420
188.636453	2257.814378	1.025969	-0.008574	2.790353
190.264431	2268.861704	1.030973	-0.008882	2.796421
192.222889	2279.757721	1.035978	-0.009252	2.802449
193.553219	2290.927510	1.040983	-0.009505	2.808505
194.145762	2301.979539	1.045988	-0.009619	2.814366
194.525989	2313.001742	1.050992	-0.009693	2.820166
194.934388	2324.031150	1.055997	-0.009772	2.825961
195.493371	2335.041894	1.061002	-0.009880	2.831759
195.933696	2346.038300	1.066006	-0.009965	2.837519
196.339056	2357.087155	1.071011	-0.010044	2.843289
196.784612	2368.093767	1.076016	-0.010130	2.849031
197.406486	2379.116737	1.081021	-0.010250	2.854798
197.798089	2390.135074	1.086025	-0.010326	2.860514
198.259809	2401.165924	1.091030	-0.010415	2.866237
198.639334	2412.193303	1.096035	-0.010489	2.871933
199.170389	2423.179298	1.101039	-0.010591	2.877620
199.724467	2434.198393	1.106044	-0.010698	2.883316
200.440467	2445.227164	1.111049	-0.010835	2.889032
200.887866	2456.262969	1.116054	-0.010922	2.894697
201.493772	2467.255712	1.121058	-0.011038	2.900354
201.921664	2478.263844	1.126063	-0.011121	2.905980
202.412792	2489.332757	1.131068	-0.011216	2.911636
202.590226	2500.326401	1.136073	-0.011252	2.917194
203.017941	2511.360072	1.141077	-0.011335	2.922800
203.555959	2522.337536	1.146082	-0.011439	2.928384
204.120176	2533.374206	1.151087	-0.011547	2.933991
204.727314	2544.381406	1.156091	-0.011664	2.939579
205.261594	2555.403554	1.161096	-0.011767	2.945152
205.843746	2566.427636	1.166101	-0.011879	2.950723
206.546643	2577.446035	1.171106	-0.012014	2.956299
206.977998	2588.475012	1.176110	-0.012097	2.961828
207.519326	2599.485473	1.181115	-0.012202	2.967355
207.793927	2610.512315	1.186120	-0.012256	2.972839
208.380437	2621.518832	1.191125	-0.012369	2.978349
208.749277	2632.555581	1.196129	-0.012441	2.983832
209.083400	2643.580873	1.201134	-0.012506	2.989293
209.598367	2654.561997	1.206139	-0.012605	2.994750
209.938858	2665.618187	1.211143	-0.012672	3.000207
210.378906	2676.619499	1.216148	-0.012757	3.005643
210.870304	2687.646949	1.221153	-0.012852	3.011089
211.493861	2698.623112	1.226158	-0.012972	3.016519
211.835742	2709.684299	1.231162	-0.013039	3.021939
212.273861	2720.680152	1.236167	-0.013124	3.027332
212.546296	2731.732792	1.241172	-0.013178	3.032719
213.159836	2742.709823	1.246177	-0.013295	3.038109
213.639750	2753.741777	1.251181	-0.013388	3.043496
214.294334	2764.748155	1.256186	-0.013514	3.048886
214.704767	2775.802027	1.261191	-0.013594	3.054255
214.879879	2786.786924	1.266195	-0.013629	3.059547
215.644932	2797.793613	1.271200	-0.013775	3.064925
216.155772	2808.843118	1.276205	-0.013874	3.070277
216.778921	2819.843064	1.281210	-0.013994	3.075613
217.293391	2830.860932	1.286214	-0.014093	3.080931
217.654107	2841.897984	1.291219	-0.014163	3.086229
218.159744	2852.891041	1.296224	-0.014261	3.091516
218.576553	2863.925144	1.301228	-0.014342	3.096801
219.246556	2874.910284	1.306233	-0.014470	3.102090
219.653965	2885.960703	1.311238	-0.014550	3.107363
220.160383	2896.967961	1.316243	-0.014647	3.112621
220.524641	2908.019690	1.321247	-0.014718	3.117871
220.915918	2919.001316	1.326252	-0.014794	3.123083
221.517806	2930.037020	1.331257	-0.014910	3.128340
221.985471	2941.022590	1.336262	-0.015001	3.133547
222.581909	2952.055971	1.341266	-0.015115	3.138784
223.138392	2963.072592	1.346271	-0.015222	3.144000
223.618385	2974.109055	1.351276	-0.015315	3.149206
224.020378	2985.116574	1.356280	-0.015393	3.154378
224.388620	2996.153809	1.361285	-0.015465	3.159552
224.929214	3007.138919	1.366290	-0.015569	3.164716
225.304388	3018.188147	1.371295	-0.015642	3.169879
225.763515	3029.157563	1.376299	-0.015731	3.175008
226.417596	3040.205593	1.381304	-0.015857	3.180191
226.794083	3051.220145	1.386309	-0.015930	3.185312
227.199467	3062.243735	1.391314	-0.016009	3.190434
227.670916	3073.247881	1.396318	-0.016100	3.195546
228.067135	3084.281754	1.401323	-0.016177	3.200655
228.624865	3095.264968	1.406328	-0.016285	3.205753
229.243131	3106.310279	1.411332	-0.016403	3.210879
229.411584	3117.303316	1.416337	-0.016438	3.215914
229.884961	3128.353918	1.421342	-0.016529	3.221007
230.228024	3139.352227	1.426347	-0.016596	3.226052
230.759794	3150.365277	1.431351	-0.016699	3.231119
231.151622	3161.382728	1.436356	-0.016775	3.236162
231.783048	3172.395029	1.441361	-0.016896	3.241227
231.971739	3183.432930	1.446366	-0.016934	3.246237
232.271147	3194.464565	1.451370	-0.016993	3.251251
232.881337	3205.424977	1.456375	-0.017111	3.256265
233.298998	3216.468566	1.461380	-0.017192	3.261284
233.689935	3227.496188	1.466384	-0.017268	3.266284
234.265913	3238.509735	1.471389	-0.017379	3.271295
234.593108	3249.520454	1.476394	-0.017443	3.276264
235.098479	3260.542756	1.481399	-0.017540	3.281254
235.711899	3271.552202	1.486403	-0.017658	3.286243
236.104510	3282.582358	1.491408	-0.017734	3.291207
236.653672	3293.556860	1.496413	-0.017840	3.296158
237.225904	3304.621344	1.501417	-0.017950	3.301144
237.769181	3315.602862	1.506422	-0.018055	3.306082
238.244220	3326.650362	1.511427	-0.018147	3.311033
238.544107	3337.643731	1.516432	-0.018206	3.315931
239.279777	3348.689363	1.521436	-0.018347	3.320899
239.465828	3359.693857	1.526441	-0.018384	3.325773
239.766026	3370.732785	1.531446	-0.018443	3.330669
240.049879	3381.707566	1.536451	-0.018499	3.335527
240.572642	3392.740102	1.541455	-0.018600	3.340433
240.971131	3403.758120	1.546460	-0.018678	3.345310
241.423335	3414.797469	1.551465	-0.018765	3.350196
241.665844	3425.772965	1.556469	-0.018813	3.355021
242.015589	3436.820280	1.561474	-0.018882	3.359884
242.505593	3447.830196	1.566479	-0.018976	3.364740
242.911806	3458.860624	1.571484	-0.019055	3.369588
243.296080	3469.819983	1.576488	-0.019130	3.374395
243.825186	3480.877951	1.581493	-0.019232	3.379256
244.256348	3491.880218	1.586498	-0.019316	3.384074
244.684757	3502.920302	1.591503	-0.019399	3.388900
244.753403	3513.930149	1.596507	-0.019415	3.393663
245.059314	3524.940058	1.601512	-0.019475	3.398449
245.547841	3535.935931	1.606517	-0.019569	3.403243
246.058203	3546.973669	1.611521	-0.019668	3.408051
246.162027	3557.995771	1.616526	-0.019690	3.412796
246.542053	3569.003210	1.621531	-0.019764	3.417562
247.000205	3579.996673	1.626536	-0.019853	3.422324
247.611606	3591.043766	1.631540	-0.019970	3.427121
247.981517	3602.032610	1.636545	-0.020042	3.431857
248.625806	3613.068771	1.641550	-0.020166	3.436640
248.984243	3624.079612	1.646555	-0.020236	3.441371
249.522844	3635.107632	1.651559	-0.020340	3.446124
249.806072	3646.112947	1.656564	-0.020395	3.450830
250.464695	3657.111897	1.661569	-0.020522	3.455572
250.557173	3668.172493	1.666573	-0.020542	3.460267
251.110594	3679.169474	1.671578	-0.020648	3.464982
251.301333	3690.192074	1.676583	-0.020687	3.469659
251.550877	3701.205447	1.681588	-0.020736	3.474333
251.726840	3712.234771	1.686592	-0.020772	3.478999
252.313459	3723.217866	1.691597	-0.020885	3.483686
252.899111	3734.254503	1.696602	-0.020998	3.488390
253.245471	3745.251329	1.701606	-0.021065	3.493042
253.710753	3756.259763	1.706611	-0.021155	3.497707
254.147942	3767.299953	1.711616	-0.021240	3.502376
254.639139	3778.302438	1.716621	-0.021335	3.507029
255.206857	3789.325377	1.721625	-0.021444	3.511692
255.625284	3800.330609	1.726630	-0.021526	3.516325
256.202488	3811.355678	1.731635	-0.021637	3.520978
256.757427	3822.370338	1.736640	-0.021743	3.525618
257.144673	3833.431918	1.741644	-0.021819	3.530253
257.420344	3844.381065	1.746649	-0.021873	3.534822
257.649868	3855.440886	1.751654	-0.021919	3.539425
257.722248	3866.442904	1.756658	-0.021935	3.543982
258.266255	3877.457489	1.761663	-0.022040	3.548590
258.695935	3888.455584	1.766668	-0.022124	3.553172
259.279984	3899.485122	1.771673	-0.022236	3.557779
259.450947	3910.525906	1.776677	-0.022271	3.562338
259.838035	3921.530524	1.781682	-0.022346	3.566901
260.105991	3932.504644	1.786687	-0.022399	3.571432
260.636872	3943.566571	1.791692	-0.022501	3.576021
261.001183	3954.553429	1.796696	-0.022572	3.580557
261.530030	3965.570921	1.801701	-0.022674	3.585116
261.814621	3976.587068	1.806706	-0.022731	3.589643
262.223443	3987.620233	1.811710	-0.022810	3.594184
262.638547	3998.631515	1.816715	-0.022891	3.598711
262.981849	4009.670024	1.821720	-0.022958	3.603236
263.341095	4020.653847	1.826725	-0.023028	3.607734
263.792930	4031.677163	1.831729	-0.023115	3.612253
264.128894	4042.691472	1.836734	-0.023181	3.616750
264.504930	4053.688309	1.841739	-0.023254	3.621239
264.833461	4064.730279	1.846744	-0.023319	3.625735
265.225996	4075.734467	1.851748	-0.023395	3.630217
265.473125	4086.760054	1.856753	-0.023444	3.634686
265.972242	4097.778660	1.861758	-0.023541	3.639174
266.229785	4108.842427	1.866762	-0.023592	3.643649
266.736084	4119.846674	1.871767	-0.023689	3.648120
266.978441	4130.863484	1.876772	-0.023738	3.652564
267.547786	4141.865637	1.881777	-0.023847	3.657030
267.822939	4152.882515	1.886781	-0.023902	3.661466
268.306563	4163.920054	1.891786	-0.023995	3.665926
268.425104	4174.930184	1.896791	-0.024020	3.670332
268.691822	4185.956385	1.901795	-0.024073	3.674754
269.075350	4196.939648	1.906800	-0.024147	3.679166
269.419155	4207.991603	1.911805	-0.024215	3.683596
269.587732	4218.998286	1.916810	-0.024249	3.687984
269.859006	4230.009563	1.921814	-0.024303	3.692380
270.102810	4241.023220	1.926819	-0.024351	3.696768
270.676883	4252.017928	1.931824	-0.024462	3.701178
271.006825	4263.065206	1.936829	-0.024526	3.705577
271.213687	4274.069228	1.941833	-0.024568	3.709942
271.485349	4285.071962	1.946838	-0.024622	3.714308
271.849926	4296.074121	1.951843	-0.024693	3.718678
272.234980	4307.122365	1.956847	-0.024768	3.723063
272.606474	4318.133409	1.961852	-0.024840	3.727426
272.974303	4329.133153	1.966857	-0.024912	3.731780
273.216112	4340.161834	1.971862	-0.024960	3.736127
