Wed Nov 23 17:31:11 2022

Number of Points = 2200
Depth (nm)	Load (µN)	Time (s)	Depth (V)	Load (V)
-0.959584	0.642554	0.000000	0.080085	0.805764
0.000000	6.516197	0.005005	0.079904	0.817165
1.128429	15.154105	0.010009	0.079690	0.833460
2.283878	25.499248	0.015014	0.079470	0.852438
3.391137	36.468097	0.020019	0.079260	0.872033
4.554252	47.623566	0.025024	0.079039	0.891541
5.547911	58.882081	0.030028	0.078850	0.910696
9.520283	69.413893	0.035033	0.078102	0.930062
11.783904	80.853823	0.040038	0.077674	0.949457
13.486660	92.293622	0.045043	0.077352	0.968142
14.912623	103.654366	0.050047	0.077081	0.986199
15.891920	114.960397	0.055052	0.076895	1.003604
17.240079	126.080615	0.060057	0.076639	1.020640
18.524740	137.268601	0.065061	0.076395	1.037458
19.904729	148.401052	0.070066	0.076134	1.053979
20.988979	159.647572	0.075071	0.075927	1.070250
22.135843	170.804623	0.080076	0.075709	1.086186
23.129997	181.944084	0.085080	0.075520	1.101791
24.541262	193.036476	0.090085	0.075253	1.117318
25.285203	204.286148	0.095090	0.075110	1.132516
26.252497	215.409123	0.100094	0.074926	1.147455
27.056423	226.533273	0.105099	0.074772	1.162126
28.311637	237.577885	0.110104	0.074534	1.176722
29.038648	248.772574	0.115109	0.074395	1.191083
30.014455	259.867368	0.120113	0.074209	1.205263
30.651058	271.014547	0.125118	0.074087	1.219189
31.672495	282.086442	0.130123	0.073892	1.233037
32.270978	293.239939	0.135128	0.073777	1.246643
33.092166	304.304644	0.140132	0.073621	1.260093
33.944820	315.363367	0.145137	0.073458	1.273406
34.972951	326.464723	0.150142	0.073262	1.286705
35.373844	337.684718	0.155146	0.073184	1.299741
35.965982	348.760996	0.160151	0.073070	1.312563
36.516139	359.793869	0.165156	0.072964	1.325196
36.979711	370.916312	0.170161	0.072875	1.337773
37.459178	381.952034	0.175165	0.072782	1.350144
38.436384	392.971108	0.180170	0.072596	1.362581
38.950339	404.113384	0.185175	0.072497	1.374857
39.666065	415.191690	0.190180	0.072360	1.387033
40.408990	426.186754	0.195184	0.072217	1.399025
41.304784	437.276158	0.200189	0.072047	1.411072
41.821323	448.410020	0.205194	0.071947	1.422920
42.291728	459.496949	0.210198	0.071856	1.434604
42.738172	470.556682	0.215203	0.071769	1.446156
43.465932	481.597318	0.220208	0.071630	1.457701
43.683861	492.696374	0.225213	0.071586	1.469028
44.236014	503.753227	0.230217	0.071480	1.480346
44.599520	514.818376	0.235222	0.071409	1.491519
45.138669	525.859963	0.240227	0.071305	1.502648
45.472192	536.931030	0.245232	0.071240	1.513651
46.136323	547.963094	0.250236	0.071113	1.524652
46.549003	559.037766	0.255241	0.071032	1.535527
46.837374	570.144404	0.260246	0.070976	1.546314
47.062007	581.186643	0.265250	0.070931	1.556943
47.598446	592.193228	0.270255	0.070827	1.567572
49.480037	602.726398	0.275260	0.070472	1.578136
58.705278	613.050662	0.280265	0.068738	1.590883
59.383940	625.206285	0.285269	0.068608	1.602393
60.175865	636.343064	0.290274	0.068456	1.612922
60.872765	647.463660	0.295279	0.068323	1.623336
62.036157	658.408882	0.300283	0.068102	1.633675
62.556269	669.554097	0.305288	0.068001	1.643923
63.564953	680.518287	0.310293	0.067810	1.654100
64.646658	691.565034	0.315298	0.067604	1.664311
65.361480	702.678313	0.320302	0.067467	1.674403
66.270573	713.697941	0.325307	0.067294	1.684412
67.352421	724.715349	0.330312	0.067088	1.694414
67.797424	735.842661	0.335317	0.067002	1.704255
68.813161	746.820927	0.340321	0.066808	1.714086
69.362383	757.912511	0.345326	0.066703	1.723815
70.209266	768.930598	0.350331	0.066541	1.733517
71.075305	779.972329	0.355335	0.066376	1.743190
71.607859	791.065935	0.360340	0.066273	1.752754
72.272021	802.074376	0.365345	0.066146	1.762233
73.343511	813.080428	0.370350	0.065942	1.771779
73.862704	824.173170	0.375354	0.065842	1.781184
74.918184	835.156357	0.380359	0.065641	1.790604
75.661516	846.217391	0.385364	0.065499	1.799949
76.567065	857.262917	0.390369	0.065326	1.809279
77.169213	868.338127	0.395373	0.065210	1.818497
77.957332	879.344625	0.400378	0.065060	1.827667
78.560035	890.412699	0.405383	0.064944	1.836787
79.859270	901.353217	0.410387	0.064697	1.845956
80.308596	912.514536	0.415392	0.064610	1.855017
81.017918	923.520106	0.420397	0.064474	1.863983
81.719207	934.526314	0.425402	0.064340	1.872903
82.404242	945.615123	0.430406	0.064209	1.881842
83.002301	956.636764	0.435411	0.064094	1.890662
83.985518	967.612760	0.440416	0.063907	1.899509
84.558863	978.725468	0.445421	0.063796	1.908310
85.267217	989.736391	0.450425	0.063661	1.917029
85.711811	1000.799550	0.455430	0.063575	1.925677
86.411483	1011.809428	0.460435	0.063441	1.934313
87.109124	1022.821221	0.465439	0.063307	1.942912
88.104584	1033.857668	0.470444	0.063117	1.951570
88.660644	1044.928872	0.475449	0.063010	1.960100
89.305972	1055.965321	0.480454	0.062887	1.968590
89.818556	1067.004183	0.485458	0.062788	1.977010
90.725945	1077.994822	0.490463	0.062615	1.985461
91.234517	1089.078745	0.495468	0.062516	1.993842
92.096444	1100.044442	0.500472	0.062352	2.002191
92.696845	1111.143149	0.505477	0.062237	2.010536
93.518429	1122.125417	0.510482	0.062080	2.018817
94.129563	1133.187114	0.515487	0.061962	2.027069
94.628170	1144.257662	0.520491	0.061866	2.035265
95.294575	1155.240426	0.525496	0.061738	2.043407
96.185789	1166.235533	0.530501	0.061568	2.051581
96.623152	1177.340459	0.535506	0.061483	2.059688
97.270509	1188.337234	0.540510	0.061359	2.067738
97.999100	1199.378789	0.545515	0.061220	2.075809
98.514795	1210.423765	0.550520	0.061120	2.083798
98.895668	1221.468469	0.555524	0.061046	2.091724
99.503533	1232.486069	0.560529	0.060929	2.099655
99.997098	1243.476849	0.565534	0.060834	2.107510
100.910424	1254.500099	0.570539	0.060660	2.115458
101.517306	1265.553161	0.575543	0.060543	2.123325
101.975961	1276.599498	0.580548	0.060455	2.131122
102.625999	1287.613303	0.585553	0.060330	2.138913
103.328586	1298.620306	0.590558	0.060195	2.146684
103.652998	1309.720765	0.595562	0.060132	2.154402
104.331669	1320.687479	0.600567	0.060002	2.162083
104.877302	1331.739975	0.605572	0.059896	2.169764
105.304915	1342.787656	0.610576	0.059813	2.177388
105.924712	1353.766288	0.615581	0.059694	2.184982
106.674017	1364.792709	0.620586	0.059551	2.192611
107.150195	1375.858094	0.625591	0.059459	2.200178
107.755703	1386.869440	0.630595	0.059343	2.207712
108.384197	1397.897012	0.635600	0.059222	2.215236
108.735581	1408.947786	0.640605	0.059153	2.222687
109.426708	1419.931328	0.645610	0.059021	2.230145
110.114114	1430.977218	0.650614	0.058889	2.237618
110.748779	1441.997751	0.655619	0.058767	2.245037
111.409511	1453.023574	0.660624	0.058641	2.252441
111.885431	1464.087564	0.665628	0.058549	2.259805
112.531871	1475.050024	0.670633	0.058425	2.267116
112.980501	1486.148311	0.675638	0.058338	2.274448
113.268727	1497.167688	0.680643	0.058281	2.281671
113.705388	1508.174545	0.685647	0.058196	2.288895
114.418331	1519.174993	0.690652	0.058060	2.296151
114.780548	1530.232040	0.695657	0.057989	2.303345
115.324758	1541.240674	0.700661	0.057884	2.310524
115.823634	1552.264844	0.705666	0.057788	2.317682
116.512228	1563.276452	0.710671	0.057656	2.324849
117.306306	1574.299154	0.715676	0.057504	2.332024
117.873738	1585.341869	0.720680	0.057395	2.339141
118.278620	1596.376106	0.725685	0.057316	2.346196
118.821958	1607.395805	0.730690	0.057212	2.353251
119.512444	1618.392204	0.735695	0.057079	2.360300
120.183838	1629.435894	0.740699	0.056951	2.367353
120.548426	1640.489139	0.745704	0.056879	2.374328
121.211679	1651.457386	0.750709	0.056752	2.381291
121.708726	1662.527537	0.755713	0.056656	2.388262
122.186451	1673.563422	0.760718	0.056564	2.395188
122.373646	1684.586926	0.765723	0.056526	2.402027
123.156209	1695.568210	0.770728	0.056377	2.408941
123.797921	1706.606705	0.775732	0.056253	2.415842
124.167344	1717.640295	0.780737	0.056181	2.422665
124.756882	1728.657574	0.785742	0.056068	2.429503
125.272389	1739.667619	0.790747	0.055969	2.436303
126.009810	1750.676098	0.795751	0.055827	2.443126
126.694425	1761.729129	0.800756	0.055696	2.449947
127.051634	1772.759235	0.805761	0.055626	2.456670
127.811258	1783.747678	0.810765	0.055481	2.463428
128.219779	1794.801953	0.815770	0.055402	2.470139
128.805227	1805.825452	0.820775	0.055289	2.476847
129.250238	1816.868158	0.825780	0.055203	2.483522
129.748304	1827.855885	0.830784	0.055107	2.490155
130.079253	1838.927565	0.835789	0.055042	2.496789
130.521688	1849.932669	0.840794	0.054956	2.503387
130.979172	1860.920718	0.845799	0.054868	2.509960
131.347991	1871.979264	0.850803	0.054796	2.516540
131.742685	1882.991541	0.855808	0.054719	2.523081
132.117486	1894.007926	0.860813	0.054646	2.529604
132.579387	1905.037366	0.865817	0.054557	2.536134
133.153683	1916.040721	0.870822	0.054446	2.542652
133.500214	1927.085227	0.875827	0.054378	2.549135
134.194835	1938.060927	0.880832	0.054245	2.555627
134.565951	1949.151614	0.885836	0.054173	2.562108
135.123575	1960.120747	0.890841	0.054065	2.568537
135.569734	1971.219839	0.895846	0.053979	2.575004
136.006045	1982.196730	0.900850	0.053894	2.581383
136.521710	1993.185127	0.905855	0.053795	2.587768
136.999482	2004.244495	0.910860	0.053703	2.594169
137.390857	2015.250382	0.915865	0.053626	2.600509
137.658406	2026.277474	0.920869	0.053573	2.606823
138.135015	2037.311782	0.925874	0.053481	2.613163
138.525504	2048.279784	0.930879	0.053405	2.619435
139.013352	2059.288050	0.935884	0.053311	2.625732
139.464870	2070.344750	0.940888	0.053224	2.632034
139.750156	2081.385910	0.945893	0.053167	2.638283
140.239822	2092.356564	0.950898	0.053073	2.644514
140.846602	2103.388286	0.955902	0.052956	2.650785
141.499844	2114.397088	0.960907	0.052831	2.657036
141.923896	2125.444401	0.965912	0.052749	2.663254
142.542168	2136.416297	0.970917	0.052630	2.669449
143.112030	2147.469993	0.975921	0.052520	2.675666
143.619801	2158.491187	0.980926	0.052422	2.681841
144.061053	2169.525513	0.985931	0.052337	2.687996
144.667289	2180.516918	0.990936	0.052220	2.694142
145.226288	2191.548041	0.995940	0.052113	2.700288
145.911207	2202.547468	1.000945	0.051981	2.706424
146.361224	2213.618389	1.005950	0.051894	2.712544
146.697794	2224.626770	1.010954	0.051828	2.718597
147.080186	2235.643937	1.015959	0.051754	2.724649
147.455978	2246.677799	1.020964	0.051680	2.730696
147.840790	2257.673096	1.025969	0.051606	2.736709
148.316561	2268.711344	1.030973	0.051514	2.742748
148.940610	2279.699467	1.035978	0.051394	2.748772
149.193938	2290.746377	1.040983	0.051343	2.754751
149.727909	2301.751668	1.045988	0.051241	2.760742
150.214585	2312.781188	1.050992	0.051146	2.766725
150.588374	2323.816129	1.055997	0.051074	2.772679
151.142680	2334.797631	1.061002	0.050967	2.778622
151.578500	2345.850980	1.066006	0.050882	2.784570
151.866355	2356.876359	1.071011	0.050826	2.790466
152.155306	2367.897917	1.076016	0.050769	2.796348
152.345582	2378.931815	1.081021	0.050730	2.802208
152.848027	2389.910735	1.086025	0.050633	2.808077
153.260337	2400.931213	1.091030	0.050553	2.813942
153.662714	2411.972922	1.096035	0.050475	2.819803
154.009436	2422.990965	1.101039	0.050407	2.825631
154.413341	2433.997088	1.106044	0.050329	2.831450
155.097672	2445.008846	1.111049	0.050197	2.837305
155.611518	2456.017182	1.116054	0.050098	2.843119
155.969335	2467.059092	1.121058	0.050028	2.848912
156.373011	2478.101290	1.126063	0.049950	2.854702
156.578985	2489.098847	1.131068	0.049909	2.860425
157.156865	2500.104297	1.136073	0.049797	2.866199
157.583014	2511.158228	1.141077	0.049715	2.871963
158.145567	2522.135102	1.146082	0.049606	2.877698
158.513229	2533.163509	1.151087	0.049535	2.883416
158.871728	2544.220729	1.156091	0.049465	2.889136
159.230712	2555.206610	1.161096	0.049395	2.894808
159.543611	2566.244545	1.166101	0.049333	2.900489
160.096788	2577.234447	1.171106	0.049227	2.906171
160.710743	2588.267238	1.176110	0.049109	2.911873
161.143514	2599.266965	1.181115	0.049025	2.917520
161.609515	2610.301800	1.186120	0.048935	2.923178
162.095394	2621.325271	1.191125	0.048841	2.928822
162.513457	2632.339848	1.196129	0.048760	2.934440
162.906461	2643.352624	1.201134	0.048683	2.940043
163.401735	2654.387416	1.206139	0.048587	2.945662
163.657095	2665.410960	1.211143	0.048537	2.951227
163.728091	2676.448015	1.216148	0.048521	2.956761
163.998471	2687.437710	1.221153	0.048467	2.962291
164.489613	2698.451406	1.226158	0.048372	2.967856
164.809718	2709.466018	1.231162	0.048310	2.973385
165.237423	2720.502856	1.236167	0.048227	2.978931
165.771057	2731.488326	1.241172	0.048124	2.984457
166.023817	2742.570915	1.246177	0.048074	2.989978
166.330992	2753.533820	1.251181	0.048013	2.995439
166.726915	2764.580916	1.256186	0.047936	3.000944
167.165755	2775.571657	1.261191	0.047851	3.006417
167.576601	2786.618085	1.266195	0.047771	3.011904
167.656820	2797.620264	1.271200	0.047754	3.017310
167.989809	2808.642826	1.276205	0.047688	3.022754
168.439215	2819.644879	1.281210	0.047601	3.028194
169.057007	2830.665990	1.286214	0.047483	3.033659
169.485477	2841.693857	1.291219	0.047400	3.039089
169.662144	2852.737023	1.296224	0.047364	3.044481
170.035504	2863.722370	1.301228	0.047291	3.049863
170.431940	2874.754839	1.306233	0.047214	3.055262
170.762214	2885.766911	1.311238	0.047149	3.060632
171.317547	2896.778108	1.316243	0.047042	3.066024
171.659169	2907.799749	1.321247	0.046975	3.071381
172.106577	2918.818576	1.326252	0.046889	3.076743
172.388142	2929.842693	1.331257	0.046833	3.082073
172.799811	2940.855978	1.336262	0.046753	3.087408
172.980057	2951.885678	1.341266	0.046717	3.092709
173.197997	2962.897127	1.346271	0.046673	3.097997
173.669952	2973.892917	1.351276	0.046582	3.103304
174.128643	2984.951379	1.356280	0.046493	3.108630
174.403280	2995.925258	1.361285	0.046439	3.113881
174.751043	3006.981993	1.366290	0.046371	3.119173
175.146527	3017.967864	1.371295	0.046294	3.124428
175.574113	3029.035253	1.376299	0.046211	3.129718
175.689860	3040.025709	1.381304	0.046186	3.134919
175.984253	3051.040941	1.386309	0.046128	3.140148
176.239683	3062.050434	1.391314	0.046078	3.145360
176.779102	3073.064824	1.396318	0.045974	3.150604
177.094144	3084.074729	1.401323	0.045912	3.155807
177.243963	3095.132276	1.406328	0.045881	3.161001
177.647126	3106.109784	1.411332	0.045803	3.166183
177.903045	3117.143488	1.416337	0.045752	3.171363
178.245726	3128.150641	1.421342	0.045685	3.176534
178.581544	3139.176755	1.426347	0.045619	3.181705
178.966995	3150.180396	1.431351	0.045544	3.186863
179.359224	3161.209059	1.436356	0.045468	3.192025
179.596272	3172.220847	1.441361	0.045421	3.197150
179.995762	3183.243830	1.446366	0.045343	3.202294
180.427239	3194.258702	1.451370	0.045259	3.207430
180.926805	3205.272561	1.456375	0.045163	3.212566
181.127372	3216.289429	1.461380	0.045122	3.217656
181.661039	3227.308326	1.466384	0.045019	3.222782
181.908758	3238.330682	1.471389	0.044970	3.227864
182.505210	3249.328417	1.476394	0.044856	3.232973
182.631809	3260.369263	1.481399	0.044829	3.238032
183.013421	3271.386002	1.486403	0.044755	3.243105
183.284945	3282.395203	1.491408	0.044701	3.248152
183.589844	3293.427990	1.496413	0.044641	3.253206
183.736257	3304.426153	1.501417	0.044611	3.258216
184.132385	3315.455004	1.506422	0.044534	3.263264
184.278355	3326.473841	1.511427	0.044504	3.268268
184.541491	3337.495413	1.516432	0.044452	3.273280
184.645257	3348.503001	1.521436	0.044430	3.278258
185.036493	3359.515750	1.526441	0.044353	3.283268
185.229309	3370.555314	1.531446	0.044314	3.288256
185.583838	3381.547454	1.536451	0.044245	3.293236
186.039743	3392.549905	1.541455	0.044157	3.298226
186.365656	3403.576597	1.546460	0.044093	3.303203
186.623981	3414.598986	1.551465	0.044042	3.308162
187.198234	3425.595011	1.556469	0.043931	3.313141
187.626547	3436.624478	1.561474	0.043848	3.318110
188.170683	3447.629520	1.566479	0.043743	3.323074
188.614797	3458.682811	1.571484	0.043657	3.328040
188.910790	3469.687341	1.576488	0.043599	3.332958
189.208426	3480.707248	1.581493	0.043541	3.337876
189.638116	3491.717581	1.586498	0.043457	3.342799
189.913263	3502.718987	1.591503	0.043403	3.347691
190.513034	3513.723591	1.596507	0.043288	3.352618
190.806331	3524.801773	1.601512	0.043230	3.357532
191.360986	3535.775079	1.606517	0.043123	3.362424
191.415316	3546.813484	1.611521	0.043110	3.367277
191.985297	3557.796009	1.616526	0.043000	3.372161
192.281054	3568.841501	1.621531	0.042942	3.377032
192.492288	3579.832638	1.626536	0.042900	3.381862
192.737218	3590.879623	1.631540	0.042851	3.386713
193.080262	3601.887917	1.636545	0.042784	3.391552
193.310434	3612.889346	1.641550	0.042738	3.396368
193.603167	3623.921447	1.646555	0.042680	3.401198
193.684683	3634.964527	1.651559	0.042662	3.406000
194.085337	3645.933361	1.656564	0.042585	3.410801
194.515613	3656.952367	1.661569	0.042501	3.415621
194.835790	3667.991310	1.666573	0.042438	3.420430
195.074381	3678.995701	1.671578	0.042391	3.425207
195.310246	3690.036745	1.676583	0.042344	3.429993
195.493062	3701.030498	1.681588	0.042307	3.434745
195.848735	3712.042532	1.686592	0.042237	3.439519
196.400540	3723.047818	1.691597	0.042131	3.444307
196.922156	3734.097003	1.696602	0.042030	3.449103
197.176142	3745.078473	1.701606	0.041980	3.453832
197.583395	3756.109604	1.706611	0.041901	3.458594
197.851150	3767.137771	1.711616	0.041848	3.463331
198.234423	3778.136937	1.716621	0.041773	3.468063
198.552144	3789.146075	1.721625	0.041711	3.472785
199.017235	3800.180623	1.726630	0.041621	3.477529
199.304581	3811.178008	1.731635	0.041564	3.482229
199.557329	3822.230261	1.736640	0.041514	3.486943
199.789064	3833.209732	1.741644	0.041468	3.491616
200.147122	3844.227125	1.746649	0.041398	3.496314
200.428623	3855.259934	1.751654	0.041342	3.501004
200.959096	3866.276684	1.756658	0.041240	3.505708
200.999879	3877.296477	1.761663	0.041230	3.510352
201.373551	3888.302360	1.766668	0.041157	3.515021
201.799627	3899.312642	1.771673	0.041074	3.519692
202.188750	3910.330889	1.776677	0.040999	3.524356
202.460711	3921.382581	1.781682	0.040945	3.529015
202.680273	3932.367011	1.786687	0.040901	3.533633
202.859009	3943.398062	1.791692	0.040865	3.538260
203.189966	3954.385149	1.796696	0.040800	3.542879
203.470232	3965.447891	1.801701	0.040744	3.547519
203.876859	3976.401003	1.806706	0.040665	3.552120
204.128119	3987.458887	1.811710	0.040616	3.556742
204.180007	3998.475368	1.816715	0.040603	3.561318
204.548533	4009.480087	1.821720	0.040531	3.565919
204.838579	4020.499400	1.826725	0.040474	3.570511
205.117445	4031.499896	1.831729	0.040419	3.575089
205.614508	4042.518804	1.836734	0.040323	3.579692
205.808010	4053.570360	1.841739	0.040284	3.584269
206.273593	4064.547918	1.846744	0.040194	3.588839
206.571724	4075.587132	1.851748	0.040135	3.593411
207.008180	4086.592168	1.856753	0.040051	3.597978
207.346003	4097.635724	1.861758	0.039985	3.602544
207.688306	4108.673332	1.866762	0.039918	3.607102
207.962587	4119.690701	1.871767	0.039863	3.611638
208.066743	4130.707962	1.876772	0.039841	3.616150
208.256140	4141.717870	1.881777	0.039803	3.620663
208.695849	4152.739372	1.886781	0.039718	3.625202
208.796765	4163.759356	1.891786	0.039696	3.629698
209.148514	4174.750213	1.896791	0.039627	3.634204
209.427216	4185.786745	1.901795	0.039572	3.638715
209.897824	4196.787837	1.906800	0.039481	3.643226
210.117195	4207.837962	1.911805	0.039437	3.647725
210.576139	4218.802956	1.916810	0.039348	3.652209
210.749714	4229.844953	1.921814	0.039313	3.656688
211.031151	4240.867498	1.926819	0.039258	3.661165
211.183956	4251.887353	1.931824	0.039226	3.665622
211.379127	4262.895617	1.936829	0.039187	3.670073
211.648547	4273.903302	1.941833	0.039134	3.674527
211.941205	4284.923136	1.946838	0.039076	3.678982
212.201016	4295.972235	1.951843	0.039024	3.683441
212.433013	4306.979859	1.956847	0.038978	3.687874
212.601407	4317.958270	1.961852	0.038944	3.692283
212.817595	4328.997633	1.966857	0.038901	3.696717
213.092754	4339.989607	1.971862	0.038846	3.701132
213.567313	4351.011786	1.976866	0.038754	3.705575
213.690482	4362.021684	1.981871	0.038729	3.709971
214.259064	4373.040107	1.986876	0.038619	3.714412
214.453342	4384.074587	1.991881	0.038580	3.718814
215.078289	4395.051945	1.996885	0.038460	3.723234
215.430977	4406.099497	2.001890	0.038391	3.727647
215.794683	4417.101547	2.006895	0.038320	3.732039
