Wed Nov 23 17:50:12 2022

Number of Points = 2200
Depth (nm)	Load (µN)	Time (s)	Depth (V)	Load (V)
-3.257363	1.181557	0.000000	-0.018050	1.105925
0.000000	7.569849	0.005005	-0.018663	1.115932
3.518882	16.909532	0.010009	-0.019326	1.129806
5.970493	27.878490	0.015014	-0.019789	1.145093
8.139948	39.035393	0.020019	-0.020198	1.160282
9.612648	50.282639	0.025024	-0.020478	1.175068
10.784381	61.501817	0.030028	-0.020700	1.189498
11.475128	72.739258	0.035033	-0.020833	1.203563
12.284241	83.829219	0.040038	-0.020987	1.217339
12.981342	94.929881	0.045043	-0.021121	1.230924
13.740726	106.060726	0.050047	-0.021266	1.244423
14.213947	117.190573	0.055052	-0.021357	1.257654
14.904713	128.250634	0.060057	-0.021490	1.270758
15.335023	139.372196	0.065061	-0.021573	1.283689
15.916402	150.455091	0.070066	-0.021685	1.296509
16.232821	161.623115	0.075071	-0.021747	1.309191
16.874092	172.621630	0.080076	-0.021870	1.321694
17.334622	183.714908	0.085080	-0.021960	1.334112
17.763188	194.808314	0.090085	-0.022043	1.346402
18.045271	205.882544	0.095090	-0.022098	1.358503
18.760374	216.901201	0.100094	-0.022235	1.370605
19.100998	228.038688	0.105099	-0.022302	1.382583
19.624870	239.072864	0.110104	-0.022403	1.394419
25.950321	248.353600	0.115109	-0.023592	1.406515
38.496079	259.493295	0.120113	-0.025949	1.422736
39.345475	271.986999	0.125118	-0.026111	1.435842
40.279856	283.297645	0.130123	-0.026290	1.447666
41.241553	294.328562	0.135128	-0.026473	1.459122
42.288261	305.398715	0.140132	-0.026672	1.470558
43.501220	316.430725	0.145137	-0.026902	1.481926
44.815610	327.470214	0.150142	-0.027152	1.493250
45.253388	338.694853	0.155146	-0.027237	1.504362
46.339296	349.629962	0.160151	-0.027443	1.515338
47.358364	360.703767	0.165156	-0.027637	1.526344
48.671391	371.732129	0.170161	-0.027886	1.537327
49.582398	382.818405	0.175165	-0.028060	1.548151
50.387754	393.932452	0.180170	-0.028214	1.558889
51.407338	404.920568	0.185175	-0.028408	1.569508
52.602551	415.965074	0.190180	-0.028635	1.580165
53.585030	427.027569	0.195184	-0.028822	1.590696
54.613118	438.111577	0.200189	-0.029017	1.601193
55.195216	449.221015	0.205194	-0.029129	1.611499
56.249355	460.205520	0.210198	-0.029330	1.621778
57.221568	471.246403	0.215203	-0.029515	1.632017
58.277903	482.290702	0.220208	-0.029716	1.642220
58.986948	493.387710	0.225213	-0.029852	1.652298
60.118821	504.381225	0.230217	-0.030067	1.662355
60.387844	515.551081	0.235222	-0.030120	1.672238
61.424472	526.468244	0.240227	-0.030317	1.682079
62.242606	537.533399	0.245232	-0.030474	1.691924
63.555704	548.537931	0.250236	-0.030723	1.701810
64.481938	559.629363	0.255241	-0.030899	1.711595
65.169154	570.730146	0.260246	-0.031031	1.721260
65.905098	581.715805	0.265250	-0.031172	1.730789
66.919425	592.767221	0.270255	-0.031365	1.740402
67.731243	603.811084	0.275260	-0.031520	1.749897
68.800240	614.825573	0.280265	-0.031723	1.759390
69.862960	625.857892	0.285269	-0.031925	1.768845
70.799801	636.939651	0.290274	-0.032104	1.778254
71.780825	647.932251	0.295279	-0.032291	1.787552
72.623165	659.053943	0.300283	-0.032452	1.796867
73.526978	670.017053	0.305288	-0.032624	1.806023
74.526531	681.103703	0.310293	-0.032814	1.815258
75.166103	692.158510	0.315298	-0.032937	1.824320
76.236056	703.146720	0.320302	-0.033140	1.833404
76.693620	714.271277	0.325307	-0.033229	1.842381
77.487004	725.267928	0.330312	-0.033381	1.851306
78.279013	736.281273	0.335317	-0.033532	1.860200
79.638477	747.256137	0.340321	-0.033790	1.869176
80.299490	758.404678	0.345326	-0.033917	1.878055
80.924741	769.426962	0.350331	-0.034037	1.886784
81.920897	780.418287	0.355335	-0.034226	1.895548
82.643680	791.487779	0.360340	-0.034365	1.904258
83.416249	802.507129	0.365345	-0.034512	1.912903
84.129373	813.576933	0.370350	-0.034649	1.921532
84.818219	824.595203	0.375354	-0.034781	1.930077
85.541051	835.647085	0.380359	-0.034919	1.938617
86.110168	846.673769	0.385364	-0.035029	1.947061
86.696462	857.706666	0.390369	-0.035141	1.955478
87.673929	868.685952	0.395373	-0.035328	1.963919
88.390024	879.770020	0.400378	-0.035465	1.972334
88.968505	890.813128	0.405383	-0.035576	1.980647
89.645430	901.831704	0.410387	-0.035706	1.988933
90.492010	912.843715	0.415392	-0.035867	1.997222
91.096383	923.917156	0.420397	-0.035983	2.005460
91.646430	934.934762	0.425402	-0.036089	2.013611
92.308226	945.972935	0.430406	-0.036216	2.021770
93.068956	956.970200	0.435411	-0.036362	2.029892
93.879499	968.034934	0.440416	-0.036517	2.038042
94.367258	979.060781	0.445421	-0.036611	2.046052
95.368253	990.039832	0.450425	-0.036801	2.054122
96.296156	1001.069212	0.455430	-0.036978	2.062179
97.504586	1012.085287	0.460435	-0.037208	2.070262
98.245148	1023.176427	0.465439	-0.037349	2.078253
99.072482	1034.223714	0.470444	-0.037507	2.086203
99.508743	1045.268402	0.475449	-0.037592	2.094029
100.410357	1056.252006	0.480454	-0.037764	2.101892
101.107248	1067.291323	0.485458	-0.037897	2.109716
101.789070	1078.342100	0.490463	-0.038028	2.117516
102.409961	1089.378635	0.495468	-0.038147	2.125262
103.018047	1100.406257	0.500472	-0.038264	2.132971
103.636398	1111.427060	0.505477	-0.038383	2.140650
104.157957	1122.480294	0.510482	-0.038483	2.148301
104.601747	1133.512465	0.515487	-0.038569	2.155892
105.150303	1144.498046	0.520491	-0.038675	2.163449
106.054231	1155.521464	0.525496	-0.038847	2.171086
107.049911	1166.528506	0.530501	-0.039037	2.178705
107.849152	1177.578377	0.535506	-0.039190	2.186282
108.374134	1188.638340	0.540510	-0.039291	2.193777
108.666357	1199.692689	0.545515	-0.039349	2.201191
109.426267	1210.661184	0.550520	-0.039494	2.208628
109.887422	1221.733631	0.555524	-0.039583	2.216041
110.410881	1232.746056	0.560529	-0.039684	2.223404
111.025177	1243.746334	0.565534	-0.039802	2.230754
111.841864	1254.765345	0.570539	-0.039958	2.238136
112.396921	1265.838073	0.575543	-0.040065	2.245472
113.052309	1276.846000	0.580548	-0.040191	2.252764
113.386029	1287.915961	0.585553	-0.040256	2.260002
113.932831	1298.880978	0.590558	-0.040361	2.267195
114.568930	1309.927272	0.595562	-0.040483	2.274437
115.560571	1320.872910	0.600567	-0.040672	2.281667
116.118566	1331.994607	0.605572	-0.040780	2.288894
116.796928	1342.979039	0.610576	-0.040910	2.296036
117.258684	1354.039624	0.615581	-0.040999	2.303158
117.763890	1365.054092	0.620586	-0.041097	2.310238
118.372545	1376.074258	0.625591	-0.041213	2.317321
119.082246	1387.078200	0.630595	-0.041349	2.324394
119.721657	1398.126917	0.635600	-0.041472	2.331458
120.171433	1409.173790	0.640605	-0.041559	2.338461
120.598771	1420.163656	0.645610	-0.041642	2.345402
121.141017	1431.212116	0.650614	-0.041747	2.352382
121.679074	1442.224021	0.655619	-0.041850	2.359318
122.230357	1453.251412	0.660624	-0.041956	2.366246
122.744131	1464.273887	0.665628	-0.042056	2.373143
123.749114	1475.245147	0.670633	-0.042247	2.380088
124.437647	1486.303225	0.675638	-0.042379	2.387001
125.197358	1497.343887	0.680643	-0.042524	2.393898
125.795420	1508.363184	0.685647	-0.042639	2.400729
126.291023	1519.385653	0.690652	-0.042735	2.407523
126.986897	1530.416610	0.695657	-0.042868	2.414342
127.635857	1541.419883	0.700661	-0.042993	2.421115
128.077725	1552.480767	0.705666	-0.043078	2.427863
128.509011	1563.502643	0.710671	-0.043162	2.434567
128.964832	1574.509942	0.715676	-0.043250	2.441249
129.531812	1585.540807	0.720680	-0.043359	2.447947
129.967361	1596.562723	0.725685	-0.043444	2.454597
130.918634	1607.533767	0.730690	-0.043625	2.461298
131.467157	1618.603018	0.735695	-0.043731	2.467960
132.164146	1629.617075	0.740699	-0.043864	2.474601
132.605376	1640.648926	0.745704	-0.043950	2.481185
133.235170	1651.656345	0.750709	-0.044071	2.487773
133.634108	1662.723242	0.755713	-0.044148	2.494335
134.467568	1673.688744	0.760718	-0.044307	2.500902
134.689680	1684.770161	0.765723	-0.044352	2.507404
135.570672	1695.728777	0.770728	-0.044520	2.513942
135.998784	1706.792080	0.775732	-0.044603	2.520438
136.827044	1717.758111	0.780737	-0.044761	2.526936
137.324451	1728.871018	0.785742	-0.044857	2.533440
137.765854	1739.831092	0.790747	-0.044942	2.539828
138.347833	1750.863091	0.795751	-0.045054	2.546268
138.835012	1761.925456	0.800756	-0.045149	2.552692
139.156960	1772.922605	0.805761	-0.045212	2.559031
140.026763	1783.908428	0.810765	-0.045378	2.565449
140.561211	1794.966118	0.815770	-0.045481	2.571830
140.907735	1806.075688	0.820775	-0.045548	2.578190
141.385076	1816.988221	0.825780	-0.045641	2.584447
141.790325	1828.040186	0.830784	-0.045719	2.590754
142.116365	1839.049182	0.835789	-0.045783	2.597007
143.275612	1850.023778	0.840794	-0.046004	2.603375
143.881439	1861.049116	0.845799	-0.046120	2.609657
144.659428	1872.107859	0.850803	-0.046269	2.615973
145.059473	1883.143338	0.855808	-0.046347	2.622193
145.476618	1894.144728	0.860813	-0.046428	2.628383
146.074188	1905.182215	0.865817	-0.046542	2.634609
146.525013	1916.192475	0.870822	-0.046630	2.640780
147.107806	1927.199027	0.875827	-0.046742	2.646958
147.724134	1938.245256	0.880832	-0.046860	2.653148
148.132364	1949.264680	0.885836	-0.046939	2.659273
148.625085	1960.264442	0.890841	-0.047035	2.665388
148.926807	1971.340340	0.895846	-0.047094	2.671497
149.626276	1982.287451	0.900850	-0.047228	2.677591
150.383648	1993.307561	0.905855	-0.047373	2.683720
150.945726	2004.369523	0.910860	-0.047481	2.689824
151.243062	2015.400180	0.915865	-0.047540	2.695852
151.860946	2026.391240	0.920869	-0.047658	2.701900
152.438634	2037.404168	0.925874	-0.047769	2.707939
153.054470	2048.429839	0.930879	-0.047888	2.713977
153.547635	2059.428070	0.935884	-0.047983	2.719967
154.144658	2070.446540	0.940888	-0.048098	2.725971
154.732769	2081.500468	0.945893	-0.048211	2.731980
155.154086	2092.492367	0.950898	-0.048292	2.737914
155.521307	2103.520319	0.955902	-0.048364	2.743846
156.089701	2114.543155	0.960907	-0.048474	2.749795
156.479794	2125.555546	0.965912	-0.048549	2.755696
157.026468	2136.588013	0.970917	-0.048655	2.761621
157.394472	2147.613593	0.975921	-0.048727	2.767500
157.892177	2158.618464	0.980926	-0.048823	2.773377
158.461402	2169.622632	0.985931	-0.048932	2.779253
159.308229	2180.624554	0.990936	-0.049094	2.785160
159.811724	2191.675274	0.995940	-0.049191	2.791024
160.156086	2202.708341	1.000945	-0.049258	2.796840
160.650934	2213.731270	1.005950	-0.049354	2.802664
161.125621	2224.744321	1.010954	-0.049446	2.808467
161.436818	2235.752508	1.015959	-0.049507	2.814229
161.966812	2246.777444	1.020964	-0.049609	2.820023
162.496431	2257.790740	1.025969	-0.049711	2.825798
163.155687	2268.812598	1.030973	-0.049838	2.831587
163.459964	2279.843555	1.035978	-0.049897	2.837312
164.071874	2290.849710	1.040983	-0.050015	2.843062
164.467502	2301.883971	1.045988	-0.050092	2.848780
164.995461	2312.874465	1.050992	-0.050194	2.854484
165.452529	2323.921637	1.055997	-0.050282	2.860196
166.019265	2334.920923	1.061002	-0.050391	2.865888
166.528481	2345.950586	1.066006	-0.050490	2.871575
167.356486	2356.932012	1.071011	-0.050648	2.877276
167.938363	2367.962902	1.076016	-0.050760	2.882953
168.599430	2379.011142	1.081021	-0.050886	2.888639
168.822773	2390.065932	1.086025	-0.050931	2.894249
169.100269	2401.060086	1.091030	-0.050986	2.899827
169.214710	2412.094434	1.096035	-0.051010	2.905389
169.608276	2423.095435	1.101039	-0.051087	2.910966
169.841359	2434.116967	1.106044	-0.051133	2.916518
170.539463	2445.093220	1.111049	-0.051267	2.922108
171.213070	2456.115053	1.116054	-0.051396	2.927705
171.797813	2467.140567	1.121058	-0.051508	2.933281
172.356193	2478.168061	1.126063	-0.051616	2.938842
173.301025	2489.133884	1.131068	-0.051796	2.944421
173.912716	2500.226997	1.136073	-0.051913	2.950001
174.197967	2511.235664	1.141077	-0.051970	2.955481
174.679975	2522.256279	1.146082	-0.052063	2.960985
175.136474	2533.261841	1.151087	-0.052151	2.966468
175.678556	2544.287259	1.156091	-0.052256	2.971963
176.377725	2555.284400	1.161096	-0.052389	2.977457
176.958538	2566.313414	1.166101	-0.052501	2.982939
177.541337	2577.334627	1.171106	-0.052613	2.988407
178.107435	2588.343891	1.176110	-0.052722	2.993857
178.720766	2599.376358	1.181115	-0.052840	2.999315
179.150621	2610.399777	1.186120	-0.052923	3.004731
179.425921	2621.442881	1.191125	-0.052978	3.010125
179.755825	2632.439375	1.196129	-0.053042	3.015495
180.086310	2643.468603	1.201134	-0.053107	3.020871
180.438411	2654.468612	1.206139	-0.053176	3.026226
180.977988	2665.481163	1.211143	-0.053280	3.031604
181.346452	2676.512932	1.216148	-0.053352	3.036958
181.888445	2687.526500	1.221153	-0.053456	3.042318
182.075805	2698.583534	1.226158	-0.053494	3.047639
182.306838	2709.562764	1.231162	-0.053540	3.052920
182.699835	2720.581199	1.236167	-0.053617	3.058233
183.110752	2731.592909	1.241172	-0.053696	3.063536
183.405018	2742.625919	1.246177	-0.053754	3.068823
184.007426	2753.621790	1.251181	-0.053870	3.074127
184.304743	2764.667688	1.256186	-0.053929	3.079403
184.652620	2775.657774	1.261191	-0.053997	3.084650
185.363998	2786.681223	1.266195	-0.054133	3.089954
185.971388	2797.684845	1.271200	-0.054250	3.095226
186.332894	2808.748578	1.276205	-0.054320	3.100482
186.686229	2819.720151	1.281210	-0.054389	3.105686
186.990386	2830.782953	1.286214	-0.054449	3.110916
187.259703	2841.770177	1.291219	-0.054502	3.116097
187.780339	2852.774289	1.296224	-0.054603	3.121312
188.395349	2863.815179	1.301228	-0.054721	3.126548
188.560306	2874.866435	1.306233	-0.054755	3.131719
188.808103	2885.848697	1.311238	-0.054804	3.136860
189.280065	2896.838775	1.316243	-0.054895	3.142027
190.016851	2907.856249	1.321247	-0.055036	3.147234
190.617313	2918.908967	1.326252	-0.055151	3.152430
190.999637	2929.917780	1.331257	-0.055226	3.157568
191.228047	2940.934954	1.336262	-0.055271	3.162680
191.634303	2951.971971	1.341266	-0.055350	3.167817
191.874365	2962.985327	1.346271	-0.055398	3.172912
192.339812	2973.967421	1.351276	-0.055488	3.178015
192.727024	2984.995842	1.356280	-0.055564	3.183121
193.373876	2996.020273	1.361285	-0.055688	3.188250
193.517810	3007.045501	1.366290	-0.055717	3.193305
193.883553	3018.069991	1.371295	-0.055789	3.198382
194.311035	3029.078723	1.376299	-0.055872	3.203450
194.977632	3040.073311	1.381304	-0.056000	3.208536
195.218051	3051.131353	1.386309	-0.056047	3.213587
195.377937	3062.144096	1.391314	-0.056080	3.218598
195.746861	3073.122882	1.396318	-0.056152	3.223614
196.532952	3084.129025	1.401323	-0.056302	3.228688
197.015475	3095.173442	1.406328	-0.056396	3.233732
197.563950	3106.181258	1.411332	-0.056501	3.238760
197.739191	3117.220799	1.416337	-0.056537	3.243746
198.220613	3128.232824	1.421342	-0.056630	3.248751
198.650053	3139.215880	1.426347	-0.056713	3.253729
199.175462	3150.266908	1.431351	-0.056815	3.258742
199.675562	3161.250431	1.436356	-0.056911	3.263714
200.289728	3172.299853	1.441361	-0.057029	3.268722
200.454498	3183.316272	1.446366	-0.057063	3.273651
200.968597	3194.329219	1.451370	-0.057162	3.278614
201.486820	3205.329358	1.456375	-0.057262	3.283565
202.184755	3216.355367	1.461380	-0.057396	3.288542
202.358465	3227.393286	1.466384	-0.057431	3.293452
202.784452	3238.392453	1.471389	-0.057514	3.298368
203.131141	3249.395567	1.476394	-0.057581	3.303268
203.807738	3260.436688	1.481399	-0.057711	3.308220
204.134097	3271.440865	1.486403	-0.057775	3.313103
204.708710	3282.459629	1.491408	-0.057886	3.318017
205.024920	3293.470779	1.496413	-0.057948	3.322888
205.444349	3304.494217	1.501417	-0.058029	3.327770
205.533313	3315.528198	1.506422	-0.058048	3.332608
206.272261	3326.503165	1.511427	-0.058190	3.337494
206.805732	3337.532724	1.516432	-0.058293	3.342371
207.300902	3348.587538	1.521436	-0.058388	3.347247
207.439953	3359.570074	1.526441	-0.058417	3.352041
207.590221	3370.621429	1.531446	-0.058448	3.356859
208.117022	3381.603434	1.536451	-0.058550	3.361686
208.628044	3392.623472	1.541455	-0.058648	3.366520
208.836651	3403.654866	1.546460	-0.058690	3.371316
209.105997	3414.659153	1.551465	-0.058743	3.376100
209.494624	3425.679340	1.556469	-0.058819	3.380899
210.005774	3436.700983	1.561474	-0.058918	3.385706
210.317044	3447.713098	1.566479	-0.058979	3.390479
210.884004	3458.719345	1.571484	-0.059088	3.395272
211.262501	3469.752563	1.576488	-0.059162	3.400048
211.621981	3480.755864	1.581493	-0.059232	3.404802
211.987069	3491.784295	1.586498	-0.059303	3.409560
212.370805	3502.787463	1.591503	-0.059378	3.414304
212.807567	3513.816531	1.596507	-0.059462	3.419057
213.326813	3524.809937	1.601512	-0.059563	3.423799
213.634192	3535.874687	1.606517	-0.059623	3.428540
213.921233	3546.866475	1.611521	-0.059680	3.433240
214.331840	3557.857210	1.616526	-0.059759	3.437948
215.172868	3568.859940	1.621531	-0.059920	3.442705
215.428259	3579.919414	1.626536	-0.059971	3.447411
215.716522	3590.931195	1.631540	-0.060027	3.452094
215.935774	3601.952704	1.636545	-0.060071	3.456766
216.424290	3612.947368	1.641550	-0.060166	3.461452
216.648803	3623.982199	1.646555	-0.060210	3.466119
217.277506	3634.969814	1.651559	-0.060331	3.470805
217.741078	3646.012821	1.656564	-0.060421	3.475489
218.214361	3657.006597	1.661569	-0.060512	3.480148
218.594099	3668.044814	1.666573	-0.060586	3.484807
218.968211	3679.051827	1.671578	-0.060659	3.489447
219.278349	3690.074038	1.676583	-0.060720	3.494080
219.747443	3701.109924	1.681588	-0.060811	3.498730
219.942402	3712.120535	1.686592	-0.060850	3.503333
220.395654	3723.105011	1.691597	-0.060938	3.507947
220.929012	3734.121803	1.696602	-0.061041	3.512578
221.514501	3745.153082	1.701606	-0.061153	3.517215
221.953946	3756.158205	1.706611	-0.061239	3.521818
222.595335	3767.185532	1.711616	-0.061362	3.526447
222.786500	3778.215548	1.716621	-0.061400	3.531020
223.279954	3789.211083	1.721625	-0.061496	3.535607
223.553334	3800.232091	1.726630	-0.061550	3.540174
223.970075	3811.243427	1.731635	-0.061631	3.544747
224.281457	3822.268786	1.736640	-0.061692	3.549307
224.521047	3833.305045	1.741644	-0.061739	3.553859
224.768739	3844.307725	1.746649	-0.061789	3.558392
225.116866	3855.305378	1.751654	-0.061857	3.562928
225.518391	3866.322952	1.756658	-0.061935	3.567472
225.992249	3877.314150	1.761663	-0.062026	3.572007
226.340312	3888.379437	1.766668	-0.062094	3.576553
226.584728	3899.363177	1.771673	-0.062143	3.581049
226.990186	3910.394875	1.776677	-0.062222	3.585576
227.438306	3921.386417	1.781682	-0.062309	3.590085
227.798272	3932.435682	1.786687	-0.062379	3.594603
228.365469	3943.420172	1.791692	-0.062488	3.599111
228.698645	3954.478766	1.796696	-0.062553	3.603617
228.952968	3965.500475	1.801701	-0.062604	3.608095
229.378419	3976.472177	1.806706	-0.062686	3.612566
229.772206	3987.501910	1.811710	-0.062763	3.617051
230.014911	3998.501765	1.816715	-0.062811	3.621502
230.349831	4009.558661	1.821720	-0.062877	3.625980
230.749073	4020.552620	1.826725	-0.062954	3.630434
231.042680	4031.553204	1.831729	-0.063012	3.634874
231.445531	4042.570740	1.836734	-0.063091	3.639327
231.808792	4053.604729	1.841739	-0.063161	3.643777
232.212170	4064.616962	1.846744	-0.063240	3.648217
232.515480	4075.632415	1.851748	-0.063300	3.652642
232.920781	4086.644960	1.856753	-0.063378	3.657071
233.234742	4097.685711	1.861758	-0.063440	3.661496
233.633791	4108.728067	1.866762	-0.063518	3.665926
233.989191	4119.730210	1.871767	-0.063587	3.670329
234.302363	4130.758479	1.876772	-0.063648	3.674734
234.668807	4141.764279	1.881777	-0.063720	3.679129
234.973449	4152.794129	1.886781	-0.063780	3.683522
235.233610	4163.824471	1.891786	-0.063831	3.687906
235.755798	4174.795336	1.896791	-0.063932	3.692288
236.211692	4185.826234	1.901795	-0.064020	3.696681
236.736927	4196.832044	1.906800	-0.064122	3.701066
237.035567	4207.879854	1.911805	-0.064180	3.705439
237.316564	4218.881099	1.916810	-0.064236	3.709787
237.712424	4229.896883	1.921814	-0.064313	3.714148
238.012269	4240.898108	1.926819	-0.064372	3.718487
238.420058	4251.936515	1.931824	-0.064451	3.722847
238.669122	4262.963550	1.936829	-0.064501	3.727181
238.909273	4273.948311	1.941833	-0.064548	3.731493
239.318455	4284.955432	1.946838	-0.064628	3.735826
239.548282	4295.981618	1.951843	-0.064674	3.740142
239.831192	4307.011149	1.956847	-0.064730	3.744461
240.154891	4318.020700	1.961852	-0.064793	3.748770
240.467658	4329.041168	1.966857	-0.064854	3.753078
