Wed Nov 23 19:44:20 2022

Number of Points = 2200
Depth (nm)	Load (µN)	Time (s)	Depth (V)	Load (V)
-1.674997	0.929591	0.000000	0.020636	0.999294
0.000000	7.438165	0.005005	0.020320	1.009745
1.721799	16.680357	0.010009	0.019994	1.024053
2.948557	27.440526	0.015014	0.019761	1.040053
4.141988	38.514930	0.020019	0.019535	1.056232
5.076256	49.675489	0.025024	0.019357	1.072152
6.330278	60.780650	0.030028	0.019119	1.087923
7.343534	71.959468	0.035033	0.018926	1.103448
8.344074	83.115632	0.040038	0.018735	1.118720
8.927277	94.323326	0.045043	0.018623	1.133653
9.547734	105.472429	0.050047	0.018504	1.148335
12.703464	115.956816	0.055052	0.017909	1.163168
15.151105	127.259871	0.060057	0.017447	1.178510
16.629843	138.521476	0.065061	0.017167	1.193163
18.711671	149.612089	0.070066	0.016773	1.207699
20.044274	160.837288	0.075071	0.016521	1.221892
21.288489	171.982061	0.080076	0.016284	1.235787
22.470025	183.076905	0.085080	0.016060	1.249440
24.291997	194.079249	0.090085	0.015715	1.263110
25.601688	205.261607	0.095090	0.015467	1.276624
26.650872	216.396282	0.100094	0.015267	1.289833
28.183014	227.456605	0.105099	0.014977	1.303023
29.474917	238.550122	0.110104	0.014732	1.316018
30.801518	249.610083	0.115109	0.014480	1.328862
32.215427	260.718117	0.120113	0.014212	1.341670
32.938191	271.871051	0.125118	0.014074	1.354132
34.087225	282.920890	0.130123	0.013855	1.366536
35.205955	293.963486	0.135128	0.013643	1.378807
36.276859	305.093363	0.140132	0.013439	1.391044
37.458587	316.102259	0.145137	0.013215	1.403088
38.713646	327.190533	0.150142	0.012976	1.415140
39.512463	338.314995	0.155146	0.012824	1.426956
40.705577	349.324185	0.160151	0.012597	1.438702
41.469687	360.479265	0.165156	0.012451	1.450344
42.521295	371.510163	0.170161	0.012251	1.461872
43.215854	382.607444	0.175165	0.012118	1.473246
44.416774	393.576605	0.180170	0.011890	1.484587
45.432979	404.682889	0.185175	0.011696	1.495911
46.483997	415.737115	0.190180	0.011496	1.507110
47.085563	426.888643	0.195184	0.011381	1.518164
47.709847	437.944888	0.200189	0.011261	1.529054
48.341904	448.976217	0.205194	0.011139	1.539846
49.196210	460.009110	0.210198	0.010976	1.550639
50.237785	471.019035	0.215203	0.010778	1.561398
51.276099	482.111286	0.220208	0.010581	1.572160
51.868598	493.214087	0.225213	0.010467	1.582709
52.857577	504.187390	0.230217	0.010278	1.593199
53.644872	515.286107	0.235222	0.010128	1.603669
54.422985	526.349685	0.240227	0.009979	1.614036
55.160520	537.390559	0.245232	0.009838	1.624302
56.057434	548.414358	0.250236	0.009667	1.634540
56.779196	559.484081	0.255241	0.009529	1.644698
57.552765	570.543103	0.260246	0.009381	1.654801
58.195624	581.587091	0.265250	0.009258	1.664788
58.952139	592.619126	0.270255	0.009113	1.674739
59.732780	603.675170	0.275260	0.008964	1.684660
60.687348	614.702634	0.280265	0.008782	1.694551
61.301945	625.783091	0.285269	0.008664	1.704327
61.799613	636.850511	0.290274	0.008568	1.713999
62.556238	647.846420	0.295279	0.008423	1.723634
63.202102	658.920178	0.300283	0.008299	1.733248
63.806083	669.962783	0.305288	0.008183	1.742770
64.814259	680.957101	0.310293	0.007991	1.752318
65.057842	692.099287	0.315298	0.007943	1.761714
65.530842	703.120495	0.320302	0.007851	1.771026
66.020045	714.141010	0.325307	0.007757	1.780293
66.632610	725.163385	0.330312	0.007639	1.789549
67.251442	736.215644	0.335317	0.007520	1.798783
67.972939	747.220372	0.340321	0.007382	1.807960
68.663881	758.278282	0.345326	0.007250	1.817125
69.373432	769.309842	0.350331	0.007114	1.826228
69.767819	780.387651	0.355335	0.007037	1.835234
70.572613	791.386561	0.360340	0.006883	1.844248
71.219420	802.417688	0.365345	0.006759	1.853199
72.239870	813.429616	0.370350	0.006565	1.862194
72.928791	824.499171	0.375354	0.006433	1.871100
73.782617	835.521496	0.380359	0.006270	1.879972
74.353588	846.576013	0.385364	0.006160	1.888750
75.226583	857.599154	0.390369	0.005994	1.897544
75.756481	868.651976	0.395373	0.005892	1.906228
76.464216	879.700743	0.400378	0.005756	1.914917
77.016975	890.702675	0.405383	0.005650	1.923489
77.784967	901.764625	0.410387	0.005503	1.932126
78.343212	912.805346	0.415392	0.005395	1.940653
79.149355	923.795952	0.420397	0.005241	1.949169
79.726342	934.867828	0.425402	0.005130	1.957649
80.575628	945.850994	0.430406	0.004968	1.966096
80.929460	956.959742	0.435411	0.004899	1.974473
81.568897	967.954282	0.440416	0.004776	1.982803
82.199255	978.990024	0.445421	0.004655	1.991126
82.833651	990.049367	0.450425	0.004533	1.999432
83.044426	1001.092430	0.455430	0.004491	2.007585
83.899264	1012.084163	0.460435	0.004328	2.015829
84.291441	1023.144899	0.465439	0.004252	2.023973
84.847137	1034.154923	0.470444	0.004145	2.032089
85.458174	1045.201729	0.475449	0.004027	2.040213
86.158527	1056.229454	0.480454	0.003893	2.048312
86.624291	1067.274230	0.485458	0.003803	2.056334
87.046399	1078.314414	0.490463	0.003721	2.064310
87.584433	1089.316897	0.495468	0.003617	2.072257
88.345635	1100.350738	0.500472	0.003472	2.080250
88.785306	1111.383857	0.505477	0.003387	2.088134
89.167322	1122.466734	0.510482	0.003312	2.096009
89.459924	1133.457339	0.515487	0.003255	2.103769
89.929199	1144.486367	0.520491	0.003164	2.111568
90.437169	1155.499550	0.525496	0.003066	2.119337
91.138411	1166.514169	0.530501	0.002932	2.127124
91.648450	1177.579843	0.535506	0.002833	2.134872
92.076864	1188.605794	0.540510	0.002750	2.142547
92.401580	1199.623631	0.545515	0.002686	2.150163
93.003270	1210.656542	0.550520	0.002571	2.157827
93.516409	1221.673021	0.555524	0.002472	2.165433
93.855507	1232.738169	0.560529	0.002405	2.173004
94.354584	1243.735411	0.565534	0.002309	2.180540
94.920683	1254.739433	0.570539	0.002200	2.188069
95.518396	1265.774977	0.575543	0.002085	2.195601
96.026174	1276.827831	0.580548	0.001987	2.203098
96.417762	1287.842337	0.585553	0.001911	2.210517
96.890147	1298.893284	0.590558	0.001819	2.217954
97.252310	1309.907132	0.595562	0.001749	2.225317
97.808031	1320.920351	0.600567	0.001642	2.232698
98.039493	1331.978428	0.605572	0.001596	2.240012
98.862649	1342.936215	0.610576	0.001438	2.247367
99.293549	1354.041680	0.615581	0.001355	2.254708
99.574045	1365.047906	0.620586	0.001299	2.261928
99.945327	1376.059413	0.625591	0.001227	2.269148
100.465269	1387.082089	0.630595	0.001127	2.276384
100.829755	1398.108912	0.635600	0.001056	2.283566
101.136677	1409.155708	0.640605	0.000995	2.290726
101.502533	1420.183260	0.645610	0.000924	2.297864
101.969155	1431.178829	0.650614	0.000834	2.304980
102.689703	1442.170826	0.655619	0.000696	2.312126
103.284241	1453.235730	0.660624	0.000581	2.319270
103.683701	1464.264063	0.665628	0.000504	2.326327
103.979845	1475.314465	0.670633	0.000445	2.333355
104.092470	1486.345627	0.675638	0.000422	2.340311
104.615145	1497.334274	0.680643	0.000321	2.347305
104.908306	1508.374237	0.685647	0.000263	2.354263
105.359703	1519.377161	0.690652	0.000176	2.361210
105.571058	1530.434422	0.695657	0.000133	2.368121
105.942870	1541.452646	0.700661	0.000061	2.375020
106.373183	1552.458621	0.705666	-0.000023	2.381903
106.715625	1563.493586	0.710671	-0.000090	2.388767
107.122478	1574.495301	0.715676	-0.000169	2.395603
107.606129	1585.546444	0.720680	-0.000262	2.402465
107.715046	1596.585699	0.725685	-0.000285	2.409225
108.076284	1607.586580	0.730690	-0.000356	2.415994
108.407655	1618.594165	0.735695	-0.000421	2.422741
108.935354	1629.621743	0.740699	-0.000523	2.429521
109.290893	1640.649305	0.745704	-0.000592	2.436247
109.680089	1651.688816	0.750709	-0.000668	2.442969
109.739569	1662.722423	0.755713	-0.000682	2.449604
110.048114	1673.726035	0.760718	-0.000742	2.456251
110.448528	1684.748243	0.765723	-0.000820	2.462910
111.059835	1695.723389	0.770728	-0.000938	2.469564
111.683543	1706.777382	0.775732	-0.001057	2.476248
112.186947	1717.805811	0.780737	-0.001155	2.482876
112.426921	1728.848306	0.785742	-0.001202	2.489444
112.947571	1739.834880	0.790747	-0.001303	2.496015
113.413750	1750.867537	0.795751	-0.001393	2.502586
114.018969	1761.883663	0.800756	-0.001509	2.509156
114.644273	1772.907514	0.805761	-0.001629	2.515717
114.915783	1783.968976	0.810765	-0.001683	2.522215
115.301462	1794.955186	0.815770	-0.001758	2.528675
115.623036	1805.999408	0.820775	-0.001821	2.535140
115.979230	1817.008400	0.825780	-0.001891	2.541574
116.669247	1828.007888	0.830784	-0.002023	2.548049
116.843467	1839.078094	0.835789	-0.002058	2.554452
117.039343	1850.091205	0.840794	-0.002098	2.560810
117.184035	1861.123072	0.845799	-0.002128	2.567153
117.876202	1872.091896	0.850803	-0.002260	2.573546
119.057432	1883.103713	0.855808	-0.002485	2.580036
119.650152	1894.147778	0.860813	-0.002599	2.586421
120.163985	1905.180210	0.865817	-0.002698	2.592769
120.895148	1916.121506	0.870822	-0.002838	2.599089
122.021542	1927.186012	0.875827	-0.003052	2.605534
122.715333	1938.215193	0.880832	-0.003185	2.611865
123.177115	1949.275287	0.885836	-0.003274	2.618157
123.613460	1960.275576	0.890841	-0.003359	2.624395
123.748505	1971.345946	0.895846	-0.003387	2.630604
124.023765	1982.323911	0.900850	-0.003441	2.636771
124.549108	1993.351128	0.905855	-0.003542	2.642996
125.154875	2004.341127	0.910860	-0.003659	2.649199
125.707410	2015.394115	0.915865	-0.003765	2.655413
125.856284	2026.438702	0.920869	-0.003796	2.661538
126.069392	2037.452789	0.925874	-0.003839	2.667642
126.345214	2048.432687	0.930879	-0.003893	2.673725
126.753605	2059.463194	0.935884	-0.003972	2.679844
127.587092	2070.420252	0.940888	-0.004131	2.685983
128.011951	2081.503558	0.945893	-0.004214	2.692106
128.290853	2092.513589	0.950898	-0.004269	2.698150
128.658672	2103.529220	0.955902	-0.004341	2.704198
129.131465	2114.548976	0.960907	-0.004432	2.710253
129.682869	2125.558227	0.965912	-0.004538	2.716302
130.242710	2136.591235	0.970917	-0.004646	2.722352
130.378537	2147.647714	0.975921	-0.004674	2.728329
130.477049	2158.663575	0.980926	-0.004696	2.734265
130.651126	2169.665197	0.985931	-0.004731	2.740193
131.212302	2180.634218	0.990936	-0.004839	2.746156
131.661012	2191.708726	0.995940	-0.004926	2.752143
131.883594	2202.730906	1.000945	-0.004970	2.758051
132.214939	2213.714741	1.005950	-0.005035	2.763945
132.798783	2224.751898	1.010954	-0.005148	2.769896
133.183373	2235.762400	1.015959	-0.005223	2.775787
133.833285	2246.770766	1.020964	-0.005347	2.781707
134.364354	2257.791239	1.025969	-0.005450	2.787602
134.900897	2268.825083	1.030973	-0.005553	2.793493
135.246441	2279.855984	1.035978	-0.005621	2.799338
135.771669	2290.850309	1.040983	-0.005722	2.805181
136.137030	2301.911301	1.045988	-0.005793	2.811020
136.448434	2312.919605	1.050992	-0.005854	2.816811
136.586659	2323.964426	1.055997	-0.005883	2.822581
136.941478	2334.926389	1.061002	-0.005952	2.828331
137.434323	2345.945544	1.066006	-0.006047	2.834121
138.090161	2356.971861	1.071011	-0.006173	2.839929
138.554394	2367.999625	1.076016	-0.006263	2.845695
138.916255	2379.043097	1.081021	-0.006334	2.851441
139.238086	2390.023147	1.086025	-0.006397	2.857137
139.966109	2401.032501	1.091030	-0.006536	2.862900
140.477865	2412.067413	1.096035	-0.006635	2.868630
140.985933	2423.104733	1.101039	-0.006733	2.874350
141.407259	2434.126343	1.106044	-0.006815	2.880036
141.799763	2445.129352	1.111049	-0.006891	2.885697
142.170321	2456.179624	1.116054	-0.006963	2.891368
142.400587	2467.188377	1.121058	-0.007009	2.896984
142.758790	2478.182067	1.126063	-0.007079	2.902602
143.211396	2489.219346	1.131068	-0.007167	2.908245
143.509546	2500.237134	1.136073	-0.007226	2.913844
143.899627	2511.258333	1.141077	-0.007302	2.919448
144.098937	2522.277197	1.146082	-0.007342	2.925010
144.363903	2533.293520	1.151087	-0.007394	2.930571
144.733635	2544.302300	1.156091	-0.007466	2.936133
145.152918	2555.335466	1.161096	-0.007548	2.941704
145.439589	2566.341903	1.166101	-0.007604	2.947231
145.841611	2577.347506	1.171106	-0.007682	2.952765
146.298253	2588.365203	1.176110	-0.007771	2.958303
146.948726	2599.371817	1.181115	-0.007895	2.963853
147.495295	2610.417371	1.186120	-0.008001	2.969397
148.027927	2621.437760	1.191125	-0.008103	2.974916
148.289241	2632.475587	1.196129	-0.008155	2.980392
148.853726	2643.452011	1.201134	-0.008264	2.985874
149.058476	2654.519561	1.206139	-0.008305	2.991336
149.483178	2665.499831	1.211143	-0.008387	2.996779
149.848018	2676.529428	1.216148	-0.008459	3.002226
150.018262	2687.551588	1.221153	-0.008493	3.007632
150.153578	2698.586311	1.226158	-0.008521	3.013028
150.741318	2709.537259	1.231162	-0.008634	3.018441
151.628665	2720.573765	1.236167	-0.008804	3.023928
152.183053	2731.601490	1.241172	-0.008910	3.029353
152.768240	2742.618419	1.246177	-0.009023	3.034767
153.234075	2753.659018	1.251181	-0.009113	3.040166
153.752559	2764.653462	1.256186	-0.009213	3.045540
154.243057	2775.707429	1.261191	-0.009308	3.050929
154.520563	2786.692124	1.266195	-0.009363	3.056245
154.931459	2797.722980	1.271200	-0.009442	3.061593
155.069181	2808.751743	1.276205	-0.009471	3.066891
155.286829	2819.780541	1.281210	-0.009515	3.072191
155.511339	2830.787280	1.286214	-0.009559	3.077473
155.806719	2841.798702	1.291219	-0.009618	3.082758
156.311856	2852.803953	1.296224	-0.009715	3.088061
156.716002	2863.836858	1.301228	-0.009794	3.093353
156.976601	2874.857706	1.306233	-0.009845	3.098610
157.277123	2885.871213	1.311238	-0.009904	3.103860
157.815256	2896.861960	1.316243	-0.010008	3.109124
158.561645	2907.869460	1.321247	-0.010151	3.114415
159.011986	2918.924002	1.326252	-0.010238	3.119679
159.410793	2929.945021	1.331257	-0.010316	3.124910
159.563668	2940.984007	1.336262	-0.010347	3.130107
160.159787	2951.956586	1.341266	-0.010462	3.135326
160.404222	2963.001896	1.346271	-0.010510	3.140521
160.911666	2973.995282	1.351276	-0.010608	3.145720
161.008384	2985.053332	1.356280	-0.010629	3.150883
161.422642	2996.018491	1.361285	-0.010710	3.156039
161.575198	3007.082623	1.366290	-0.010741	3.161196
161.891948	3018.093399	1.371295	-0.010803	3.166342
162.173619	3029.096204	1.376299	-0.010859	3.171472
162.539557	3040.106063	1.381304	-0.010930	3.176607
162.753017	3051.139273	1.386309	-0.010973	3.181725
163.106882	3062.142128	1.391314	-0.011042	3.186839
163.454710	3073.156628	1.396318	-0.011110	3.191950
164.165090	3084.166154	1.401323	-0.011246	3.197098
164.378961	3095.217629	1.406328	-0.011289	3.202191
164.585289	3106.237211	1.411332	-0.011330	3.207260
164.740082	3117.248335	1.416337	-0.011362	3.212310
165.176788	3128.236450	1.421342	-0.011447	3.217380
165.382075	3139.271530	1.426347	-0.011488	3.222432
165.772830	3150.294613	1.431351	-0.011564	3.227495
165.986415	3161.296374	1.436356	-0.011607	3.232517
166.436276	3172.318344	1.441361	-0.011694	3.237571
166.809969	3183.327466	1.446366	-0.011767	3.242601
167.343054	3194.354533	1.451370	-0.011870	3.247653
167.680625	3205.362710	1.456375	-0.011936	3.252662
167.975055	3216.399205	1.461380	-0.011994	3.257671
168.319041	3227.377631	1.466384	-0.012061	3.262653
168.659858	3238.432542	1.471389	-0.012128	3.267660
169.059806	3249.433469	1.476394	-0.012205	3.272644
169.517921	3260.446097	1.481399	-0.012294	3.277632
169.676593	3271.492338	1.486403	-0.012326	3.282589
169.851552	3282.519285	1.491408	-0.012362	3.287533
170.263641	3293.500281	1.496413	-0.012442	3.292478
170.606917	3304.509382	1.501417	-0.012509	3.297420
171.011599	3315.518569	1.506422	-0.012588	3.302362
171.518454	3326.559267	1.511427	-0.012686	3.307324
171.769535	3337.569798	1.516432	-0.012736	3.312232
172.075364	3348.597624	1.521436	-0.012796	3.317148
172.560264	3359.598419	1.526441	-0.012889	3.322067
173.000512	3370.615894	1.531446	-0.012975	3.326980
173.297405	3381.633178	1.536451	-0.013033	3.331867
173.609625	3392.654075	1.541455	-0.013094	3.336752
173.881259	3403.677982	1.546460	-0.013148	3.341625
174.285928	3414.687135	1.551465	-0.013227	3.346501
174.659876	3425.699989	1.556469	-0.013300	3.351367
174.847114	3436.730318	1.561474	-0.013338	3.356211
175.129747	3447.732758	1.566479	-0.013393	3.361048
175.340680	3458.775055	1.571484	-0.013436	3.365886
175.599243	3469.774850	1.576488	-0.013487	3.370705
175.994152	3480.776850	1.581493	-0.013564	3.375534
176.375428	3491.797370	1.586498	-0.013638	3.380362
176.915379	3502.797548	1.591503	-0.013742	3.385194
177.320629	3513.843684	1.596507	-0.013821	3.390023
177.557761	3524.850958	1.601512	-0.013868	3.394807
177.792744	3535.890521	1.606517	-0.013915	3.399598
178.270333	3546.881898	1.611521	-0.014007	3.404391
178.621685	3557.907671	1.616526	-0.014076	3.409177
178.961779	3568.905142	1.621531	-0.014142	3.413942
179.330981	3579.928424	1.626536	-0.014214	3.418716
179.729608	3590.945446	1.631540	-0.014292	3.423483
180.213389	3601.942912	1.636545	-0.014385	3.428245
180.610234	3612.980216	1.641550	-0.014463	3.433008
181.013936	3623.998377	1.646555	-0.014541	3.437756
181.528691	3635.001460	1.651559	-0.014640	3.442504
181.709292	3646.062568	1.656564	-0.014677	3.447231
182.002293	3657.054345	1.661569	-0.014735	3.451935
182.236336	3668.068070	1.666573	-0.014781	3.456635
182.739037	3679.064340	1.671578	-0.014878	3.461353
183.091275	3690.113778	1.676583	-0.014947	3.466069
183.285781	3701.103633	1.681588	-0.014986	3.470735
183.358959	3712.141762	1.686592	-0.015003	3.475402
183.571409	3723.156612	1.691597	-0.015046	3.480068
183.847100	3734.169869	1.696602	-0.015100	3.484734
184.291038	3745.169212	1.701606	-0.015186	3.489408
184.552447	3756.209045	1.706611	-0.015238	3.494071
185.059219	3767.204333	1.711616	-0.015336	3.498738
185.223665	3778.233511	1.716621	-0.015369	3.503373
185.688152	3789.233813	1.721625	-0.015459	3.508024
185.968872	3800.263247	1.726630	-0.015514	3.512660
186.280645	3811.272845	1.731635	-0.015576	3.517285
186.668255	3822.295386	1.736640	-0.015651	3.521918
186.966050	3833.313595	1.741644	-0.015710	3.526533
187.236265	3844.323897	1.746649	-0.015763	3.531136
187.688555	3855.332661	1.751654	-0.015851	3.535752
188.149206	3866.324551	1.756658	-0.015940	3.540356
188.413037	3877.370764	1.761663	-0.015992	3.544954
188.604212	3888.402775	1.766668	-0.016031	3.549533
189.107938	3899.386133	1.771673	-0.016128	3.554120
189.399118	3910.433056	1.776677	-0.016185	3.558704
190.002775	3921.413448	1.781682	-0.016301	3.563289
190.469844	3932.461978	1.786687	-0.016392	3.567881
190.796681	3943.443315	1.791692	-0.016456	3.572423
190.986274	3954.497083	1.796696	-0.016494	3.576975
191.621987	3965.447099	1.801701	-0.016616	3.581527
192.024487	3976.523716	1.806706	-0.016694	3.586100
192.340771	3987.513179	1.811710	-0.016756	3.590621
192.545941	3998.563313	1.816715	-0.016798	3.595150
192.857514	4009.547020	1.821720	-0.016859	3.599657
193.258997	4020.591471	1.826725	-0.016937	3.604193
193.479490	4031.584578	1.831729	-0.016981	3.608683
193.781914	4042.621372	1.836734	-0.017041	3.613193
194.104170	4053.626105	1.841739	-0.017104	3.617687
194.323552	4064.633523	1.846744	-0.017148	3.622166
194.612940	4075.653978	1.851748	-0.017205	3.626652
194.773564	4086.674464	1.856753	-0.017237	3.631118
195.139144	4097.714876	1.861758	-0.017309	3.635609
195.545913	4108.747524	1.866762	-0.017388	3.640095
195.961785	4119.752912	1.871767	-0.017469	3.644566
196.459398	4130.778629	1.876772	-0.017565	3.649048
196.883099	4141.780979	1.881777	-0.017647	3.653507
197.260484	4152.814794	1.886781	-0.017721	3.657968
197.602685	4163.835762	1.891786	-0.017787	3.662415
197.753407	4174.868346	1.896791	-0.017818	3.666841
198.110922	4185.834340	1.901795	-0.017888	3.671257
198.392251	4196.909018	1.906800	-0.017944	3.675703
198.687249	4207.859659	1.911805	-0.018002	3.680095
198.951914	4218.924235	1.916810	-0.018054	3.684524
199.512871	4229.904547	1.921814	-0.018162	3.688945
199.834353	4240.935020	1.926819	-0.018225	3.693356
200.150598	4251.959050	1.931824	-0.018287	3.697758
200.327536	4262.983837	1.936829	-0.018323	3.702141
200.660447	4273.977342	1.941833	-0.018388	3.706523
200.968648	4284.989775	1.946838	-0.018449	3.710904
201.280990	4296.006502	1.951843	-0.018510	3.715282
201.576065	4307.047316	1.956847	-0.018568	3.719662
201.822033	4318.037124	1.961852	-0.018617	3.724013
202.098927	4329.054252	1.966857	-0.018672	3.728371
202.356367	4340.097498	1.971862	-0.018723	3.732734
202.544956	4351.099169	1.976866	-0.018761	3.737067
202.920704	4362.087865	1.981871	-0.018834	3.741410
