Wed Nov 23 17:12:02 2022

Number of Points = 2200
Depth (nm)	Load (µN)	Time (s)	Depth (V)	Load (V)
-1.313370	1.151802	0.000000	0.064693	0.861123
0.000000	6.915433	0.005005	0.064445	0.871815
1.536141	15.634505	0.010009	0.064154	0.887463
2.709149	26.149094	0.015014	0.063932	0.905558
3.926636	37.138195	0.020019	0.063701	0.924086
4.943810	48.347036	0.025024	0.063507	0.942476
5.830684	59.576528	0.030028	0.063338	0.960471
6.288619	70.892524	0.035033	0.063249	0.978025
6.891671	82.090824	0.040038	0.063133	0.995173
7.548246	93.233574	0.045043	0.063007	1.011978
8.110943	104.436397	0.050047	0.062899	1.028544
8.467654	115.647261	0.055052	0.062829	1.044750
8.890401	126.796282	0.060057	0.062747	1.060657
9.376969	137.927863	0.065061	0.062653	1.076336
9.869684	149.069472	0.070066	0.062558	1.091807
10.512531	160.174106	0.075071	0.062434	1.107085
20.330597	169.229690	0.080076	0.060590	1.123908
21.961802	181.875927	0.085080	0.060281	1.141226
22.929404	193.377383	0.090085	0.060096	1.156508
23.801633	204.593319	0.095090	0.059930	1.171184
25.121451	215.677091	0.100094	0.059679	1.185718
26.225887	226.775778	0.105099	0.059469	1.199996
27.320178	237.938499	0.110104	0.059261	1.214178
28.221055	249.057247	0.115109	0.059090	1.228058
29.763142	260.047857	0.120113	0.058797	1.241909
30.771578	271.239381	0.125118	0.058605	1.255613
31.791348	282.352798	0.130123	0.058411	1.269082
32.780922	293.436209	0.135128	0.058223	1.282361
33.942029	304.498289	0.140132	0.058002	1.295551
34.833722	315.681181	0.145137	0.057832	1.308633
36.406966	326.623005	0.150142	0.057534	1.321593
37.171942	337.811630	0.155146	0.057388	1.334373
37.873752	348.934415	0.160151	0.057254	1.346934
38.935956	359.924846	0.165156	0.057052	1.359377
40.075704	371.037224	0.170161	0.056835	1.371868
41.147486	382.058568	0.175165	0.056631	1.384122
42.708501	393.087372	0.180170	0.056335	1.396464
43.592482	404.263656	0.185175	0.056167	1.408594
44.242802	415.417921	0.190180	0.056042	1.420509
44.978235	426.397048	0.195184	0.055901	1.432175
45.696509	437.553983	0.200189	0.055764	1.443923
47.095138	448.429608	0.205194	0.055499	1.455539
48.516556	459.530656	0.210198	0.055229	1.467297
49.204634	470.717341	0.215203	0.055097	1.478783
49.998789	481.720206	0.220208	0.054946	1.490035
50.981852	492.812902	0.225213	0.054758	1.501358
51.632560	503.910259	0.230217	0.054634	1.512483
53.013316	514.796164	0.235222	0.054372	1.523576
54.021316	526.002495	0.240227	0.054180	1.534768
54.587505	537.061398	0.245232	0.054071	1.545586
55.821473	548.051776	0.250236	0.053837	1.556490
56.595865	559.156969	0.255241	0.053689	1.567271
57.668712	570.159320	0.260246	0.053484	1.577982
58.348752	581.289893	0.265250	0.053354	1.588608
59.039016	592.357026	0.270255	0.053222	1.599108
59.831023	603.372422	0.275260	0.053071	1.609525
60.394585	614.491132	0.280265	0.052962	1.619895
61.406571	625.435009	0.285269	0.052769	1.630184
62.528398	636.476185	0.290274	0.052556	1.640532
63.243787	647.573132	0.295279	0.052419	1.650734
63.775414	658.680507	0.300283	0.052317	1.660825
64.928413	669.601793	0.305288	0.052098	1.670885
65.825724	680.704025	0.310293	0.051927	1.680964
66.597338	691.767256	0.315298	0.051779	1.690909
67.488477	702.818844	0.320302	0.051609	1.700822
68.216601	713.859865	0.325307	0.051470	1.710618
69.108974	724.882136	0.330312	0.051300	1.720392
69.764911	735.956662	0.335317	0.051174	1.730083
70.767535	746.962373	0.340321	0.050983	1.739766
71.565196	758.027014	0.345326	0.050830	1.749383
72.552156	769.062307	0.350331	0.050643	1.758979
73.099586	780.132321	0.355335	0.050537	1.768422
73.774078	791.193271	0.360340	0.050408	1.777844
74.833689	802.158262	0.365345	0.050206	1.787249
75.682370	813.212860	0.370350	0.050044	1.796617
76.706174	824.244271	0.375354	0.049849	1.805967
77.681625	835.312892	0.380359	0.049664	1.815285
78.184807	846.383871	0.385364	0.049566	1.824422
79.174669	857.367480	0.390369	0.049378	1.833581
79.890800	868.434162	0.395373	0.049241	1.842684
80.895766	879.457283	0.400378	0.049050	1.851787
81.328500	890.583731	0.405383	0.048966	1.860769
82.093007	901.556383	0.410387	0.048819	1.869677
82.501668	912.642426	0.415392	0.048740	1.878535
83.250587	923.607179	0.420397	0.048597	1.887348
84.300973	934.628048	0.425402	0.048397	1.896246
85.440848	945.644387	0.430406	0.048180	1.905122
86.021384	956.765462	0.435411	0.048069	1.913887
86.863482	967.745455	0.440416	0.047908	1.922574
87.519707	978.838242	0.445421	0.047782	1.931258
88.677314	989.774735	0.450425	0.047562	1.939916
89.252954	1000.901529	0.455430	0.047451	1.948527
90.073678	1011.905084	0.460435	0.047295	1.957070
90.540347	1022.985915	0.465439	0.047204	1.965542
90.886639	1034.053995	0.470444	0.047137	1.973937
91.522319	1045.014103	0.475449	0.047015	1.982290
92.265949	1056.065483	0.480454	0.046872	1.990703
92.707631	1067.148957	0.485458	0.046787	1.999027
93.367700	1078.126309	0.490463	0.046660	2.007294
94.076394	1089.174847	0.495468	0.046524	2.015591
94.660102	1100.196224	0.500472	0.046412	2.023803
95.321962	1111.215245	0.505477	0.046285	2.031999
96.024738	1122.256789	0.510482	0.046151	2.040188
96.504860	1133.308223	0.515487	0.046058	2.048296
97.074958	1144.359894	0.520491	0.045948	2.056394
97.431135	1155.364256	0.525496	0.045879	2.064374
98.216113	1166.367609	0.530501	0.045729	2.072427
98.739600	1177.417480	0.535506	0.045628	2.080418
99.481415	1188.446198	0.540510	0.045486	2.088416
99.960157	1199.499274	0.545515	0.045393	2.096338
100.808911	1210.478875	0.550520	0.045231	2.104266
101.215587	1221.552221	0.555524	0.045152	2.112124
101.889819	1232.573120	0.560529	0.045023	2.119980
102.514100	1243.582366	0.565534	0.044903	2.127787
103.259780	1254.617444	0.570539	0.044760	2.135611
103.686984	1265.659235	0.575543	0.044677	2.143337
104.284563	1276.689752	0.580548	0.044563	2.151066
104.853048	1287.723026	0.585553	0.044453	2.158763
105.380071	1298.753095	0.590558	0.044352	2.166420
105.767478	1309.811396	0.595562	0.044276	2.174038
106.072768	1320.823337	0.600567	0.044216	2.181578
106.602069	1331.821589	0.605572	0.044114	2.189134
107.301560	1342.850063	0.610576	0.043980	2.196723
108.021173	1353.859431	0.615581	0.043842	2.204278
108.868493	1364.881853	0.620586	0.043681	2.211843
109.079297	1375.981579	0.625591	0.043638	2.219292
109.767722	1386.944581	0.630595	0.043506	2.226731
110.047486	1398.032827	0.635600	0.043451	2.234137
110.597258	1409.002980	0.640605	0.043345	2.241501
111.330224	1420.038723	0.645610	0.043205	2.248923
111.827772	1431.104132	0.650614	0.043109	2.256289
112.136464	1442.119396	0.655619	0.043048	2.263557
112.590744	1453.131921	0.660624	0.042960	2.270831
112.995926	1464.155794	0.665628	0.042882	2.278078
113.789271	1475.142211	0.670633	0.042730	2.285362
114.278213	1486.208052	0.675638	0.042635	2.292608
114.718965	1497.247062	0.680643	0.042550	2.299804
115.064877	1508.268163	0.685647	0.042482	2.306945
115.596884	1519.284246	0.690652	0.042380	2.314101
115.899147	1530.325187	0.695657	0.042320	2.321201
116.480933	1541.326169	0.700661	0.042209	2.328313
116.768727	1552.377492	0.705666	0.042152	2.335374
117.597730	1563.352353	0.710671	0.041994	2.342478
118.060816	1574.409259	0.715676	0.041904	2.349535
118.653175	1585.416463	0.720680	0.041790	2.356567
119.397732	1596.415582	0.725685	0.041648	2.363605
120.351022	1607.433971	0.730690	0.041466	2.370676
120.801603	1618.511481	0.735695	0.041379	2.377659
120.971245	1629.578215	0.740699	0.041344	2.384558
121.189543	1640.574515	0.745704	0.041300	2.391403
121.567766	1651.598098	0.750709	0.041227	2.398277
122.346839	1662.564797	0.755713	0.041078	2.405178
122.906233	1673.631162	0.760718	0.040970	2.412076
123.227873	1684.664572	0.765723	0.040907	2.418886
123.718157	1695.679026	0.770728	0.040812	2.425699
124.022876	1706.710274	0.775732	0.040752	2.432466
124.571174	1717.713686	0.780737	0.040647	2.439246
124.713150	1728.764341	0.785742	0.040617	2.445954
125.420234	1739.752530	0.790747	0.040482	2.452719
125.709000	1750.815917	0.795751	0.040425	2.459427
126.365813	1761.778672	0.800756	0.040299	2.466129
126.704612	1772.850748	0.805761	0.040233	2.472815
127.101818	1783.871331	0.810765	0.040156	2.479464
127.430761	1794.906237	0.815770	0.040091	2.486091
127.954755	1805.906999	0.820775	0.039990	2.492717
128.286710	1816.935314	0.825780	0.039925	2.499305
128.630726	1827.955118	0.830784	0.039858	2.505872
129.219254	1838.959679	0.835789	0.039745	2.512460
129.613056	1850.007930	0.840794	0.039668	2.519019
130.076597	1861.005787	0.845799	0.039578	2.525545
130.428729	1872.061370	0.850803	0.039509	2.532066
130.819457	1883.065831	0.855808	0.039433	2.538549
131.474777	1894.056156	0.860813	0.039308	2.545055
131.938785	1905.104471	0.865817	0.039218	2.551543
132.389541	1916.147441	0.870822	0.039131	2.558009
132.965373	1927.129010	0.875827	0.039020	2.564446
133.333471	1938.201606	0.880832	0.038948	2.570881
133.509296	1949.271746	0.885836	0.038912	2.577262
133.918302	1960.224593	0.890841	0.038833	2.583604
134.164076	1971.242895	0.895846	0.038784	2.589937
134.473512	1982.275473	0.900850	0.038723	2.596275
134.685994	1993.305743	0.905855	0.038681	2.602578
135.238777	2004.279290	0.910860	0.038574	2.608895
135.867695	2015.290641	0.915865	0.038453	2.615232
136.362742	2026.349966	0.920869	0.038358	2.621556
136.693619	2037.358027	0.925874	0.038293	2.627807
137.295076	2048.355859	0.930879	0.038177	2.634086
137.718984	2059.383547	0.935884	0.038095	2.640334
138.479931	2070.374074	0.940888	0.037950	2.646607
138.838223	2081.450742	0.945893	0.037880	2.652841
139.233417	2092.438997	0.950898	0.037803	2.659018
139.572159	2103.475803	0.955902	0.037737	2.665197
139.784725	2114.511550	0.960907	0.037694	2.671339
140.142979	2125.517652	0.965912	0.037624	2.677477
140.618289	2136.521987	0.970917	0.037532	2.683619
140.797223	2147.560786	0.975921	0.037496	2.689715
141.387274	2158.563641	0.980926	0.037382	2.695848
141.573559	2169.606946	0.985931	0.037345	2.701920
142.041945	2180.607336	0.990936	0.037254	2.708003
142.442476	2191.620063	0.995940	0.037176	2.714068
142.883878	2202.669208	1.000945	0.037091	2.720145
143.186879	2213.662721	1.005950	0.037031	2.726155
143.619640	2224.719183	1.010954	0.036947	2.732208
143.759653	2235.731270	1.015959	0.036918	2.738174
144.103829	2246.728310	1.020964	0.036851	2.744154
144.541741	2257.752319	1.025969	0.036766	2.750150
145.001215	2268.769108	1.030973	0.036677	2.756133
145.423962	2279.790388	1.035978	0.036595	2.762099
145.759837	2290.822853	1.040983	0.036529	2.768044
146.047831	2301.840463	1.045988	0.036472	2.773960
146.435455	2312.833151	1.050992	0.036397	2.779866
146.758678	2323.888691	1.055997	0.036333	2.785783
147.167821	2334.905288	1.061002	0.036254	2.791680
147.366162	2345.914392	1.066006	0.036214	2.797526
147.840802	2356.924120	1.071011	0.036122	2.803406
148.183387	2367.954096	1.076016	0.036055	2.809262
148.623695	2378.975326	1.081021	0.035970	2.815118
148.828543	2389.998937	1.086025	0.035929	2.820924
149.201068	2401.026336	1.091030	0.035856	2.826747
149.657622	2412.009510	1.096035	0.035768	2.832548
150.269967	2423.011306	1.101039	0.035650	2.838373
150.640082	2434.091607	1.106044	0.035578	2.844187
150.775466	2445.095211	1.111049	0.035550	2.849912
151.158303	2456.099594	1.116054	0.035475	2.855665
151.628717	2467.139542	1.121058	0.035384	2.861439
151.891666	2478.135340	1.126063	0.035332	2.867145
152.232165	2489.170788	1.131068	0.035266	2.872873
152.413909	2500.197780	1.136073	0.035229	2.878559
152.844695	2511.204338	1.141077	0.035145	2.884264
153.022449	2522.241282	1.146082	0.035109	2.889932
153.450406	2533.254508	1.151087	0.035026	2.895617
153.935998	2544.238433	1.156091	0.034932	2.901284
154.409020	2555.262410	1.161096	0.034841	2.906959
154.890191	2566.277642	1.166101	0.034748	2.912619
155.371985	2577.302946	1.171106	0.034655	2.918273
155.788236	2588.321360	1.176110	0.034574	2.923903
156.161504	2599.367190	1.181115	0.034501	2.929529
156.337356	2610.397425	1.186120	0.034465	2.935106
156.481346	2621.399447	1.191125	0.034435	2.940653
156.919682	2632.398214	1.196129	0.034351	2.946233
157.123330	2643.444165	1.201134	0.034310	2.951790
157.392074	2654.451952	1.206139	0.034256	2.957327
157.633243	2665.463354	1.211143	0.034208	2.962852
158.136914	2676.488159	1.216148	0.034111	2.968413
158.419944	2687.505456	1.221153	0.034055	2.973926
158.687112	2698.524999	1.226158	0.034002	2.979427
159.198065	2709.518600	1.231162	0.033904	2.984942
159.416547	2720.572817	1.236167	0.033860	2.990433
159.888609	2731.575440	1.241172	0.033769	2.995927
160.156124	2742.598276	1.246177	0.033716	3.001389
160.487463	2753.610799	1.251181	0.033651	3.006846
160.744023	2764.631167	1.256186	0.033600	3.012286
161.098335	2775.640411	1.261191	0.033531	3.017725
161.201826	2786.678150	1.266195	0.033509	3.023131
161.455107	2797.692054	1.271200	0.033459	3.028537
161.587180	2808.721206	1.276205	0.033431	3.033924
162.049262	2819.702684	1.281210	0.033342	3.039326
162.233607	2830.748743	1.286214	0.033304	3.044709
162.727648	2841.752220	1.291219	0.033209	3.050107
163.003345	2852.780876	1.296224	0.033154	3.055476
163.230185	2863.795244	1.301228	0.033109	3.060822
163.634270	2874.793747	1.306233	0.033031	3.066176
164.083251	2885.812837	1.311238	0.032944	3.071536
164.586151	2896.821285	1.316243	0.032847	3.076890
164.928696	2907.872384	1.321247	0.032780	3.082232
165.113584	2918.901024	1.326252	0.032742	3.087532
165.420494	2929.906685	1.331257	0.032682	3.092829
165.665153	2940.923133	1.336262	0.032633	3.098113
166.114331	2951.911166	1.341266	0.032546	3.103403
166.426256	2962.958425	1.346271	0.032485	3.108693
166.543828	2973.984135	1.351276	0.032460	3.113936
166.960091	2984.983844	1.356280	0.032379	3.119200
167.256221	2996.003007	1.361285	0.032321	3.124448
167.656665	3007.041376	1.366290	0.032243	3.129710
168.154955	3018.016826	1.371295	0.032147	3.134947
168.611102	3029.052819	1.376299	0.032059	3.140198
169.031592	3040.061002	1.381304	0.031977	3.145422
169.358303	3051.093486	1.386309	0.031913	3.150636
169.736788	3062.095991	1.391314	0.031839	3.155834
170.317272	3073.098605	1.396318	0.031727	3.161051
170.890545	3084.128158	1.401323	0.031617	3.166271
171.018823	3095.186621	1.406328	0.031590	3.171435
171.223613	3106.194469	1.411332	0.031549	3.176578
171.380924	3117.199221	1.416337	0.031517	3.181704
172.091685	3128.188510	1.421342	0.031381	3.186890
172.419878	3139.230302	1.426347	0.031317	3.192039
172.602357	3150.262332	1.431351	0.031280	3.197157
172.883583	3161.277387	1.436356	0.031224	3.202271
173.234877	3172.287933	1.441361	0.031155	3.207385
173.447999	3183.296027	1.446366	0.031113	3.212470
174.021844	3194.286579	1.451370	0.031002	3.217588
174.420019	3205.340700	1.456375	0.030925	3.222703
174.745847	3216.352432	1.461380	0.030861	3.227781
174.701260	3227.388418	1.466384	0.030867	3.232813
175.142844	3238.359276	1.471389	0.030781	3.237872
175.657685	3249.391127	1.476394	0.030682	3.242960
176.097239	3260.432298	1.481399	0.030597	3.248034
176.392479	3271.426027	1.486403	0.030538	3.253060
176.520095	3282.454289	1.491408	0.030512	3.258071
176.969127	3293.445197	1.496413	0.030425	3.263100
177.388252	3304.501554	1.501417	0.030343	3.268147
177.641982	3315.500252	1.506422	0.030293	3.273139
177.973890	3326.514395	1.511427	0.030228	3.278139
178.171603	3337.546610	1.516432	0.030188	3.283123
178.492946	3348.568753	1.521436	0.030125	3.288111
178.859414	3359.556703	1.526441	0.030054	3.293082
179.251276	3370.587888	1.531446	0.029977	3.298067
179.774894	3381.578271	1.536451	0.029876	3.303044
180.116799	3392.631265	1.541455	0.029810	3.308017
180.389917	3403.633846	1.546460	0.029756	3.312952
180.785028	3414.665461	1.551465	0.029679	3.317908
181.019352	3425.663282	1.556469	0.029632	3.322821
181.399669	3436.686181	1.561474	0.029558	3.327756
181.561696	3447.712248	1.566479	0.029525	3.332658
181.871441	3458.717081	1.571484	0.029464	3.337562
182.115439	3469.731544	1.576488	0.029415	3.342454
182.599774	3480.752524	1.581493	0.029322	3.347373
182.930606	3491.774653	1.586498	0.029257	3.352265
183.397419	3502.775531	1.591503	0.029167	3.357157
183.704872	3513.803688	1.596507	0.029106	3.362035
184.119576	3524.812242	1.601512	0.029026	3.366910
184.046937	3535.859372	1.606517	0.029037	3.371734
184.464687	3546.845144	1.611521	0.028956	3.376586
184.773537	3557.868407	1.616526	0.028895	3.381433
185.277514	3568.868808	1.621531	0.028798	3.386287
185.444424	3579.917500	1.626536	0.028764	3.391114
185.532310	3590.921525	1.631540	0.028744	3.395905
186.088892	3601.912313	1.636545	0.028637	3.400740
186.319763	3612.955506	1.641550	0.028591	3.405552
186.703594	3623.965333	1.646555	0.028516	3.410361
186.922665	3634.986400	1.651559	0.028473	3.415148
187.232489	3645.990610	1.656564	0.028412	3.419932
187.849415	3657.007727	1.661569	0.028293	3.424751
188.094406	3668.048511	1.666573	0.028245	3.429529
188.545778	3679.028684	1.671578	0.028157	3.434299
188.766710	3690.087780	1.676583	0.028113	3.439069
188.975717	3701.091351	1.681588	0.028071	3.443807
189.106833	3712.127467	1.686592	0.028044	3.448543
189.474768	3723.087028	1.691597	0.027972	3.453268
189.819006	3734.145401	1.696602	0.027905	3.458026
190.074579	3745.135269	1.701606	0.027854	3.462737
190.175862	3756.202001	1.706611	0.027832	3.467457
190.295752	3767.165527	1.711616	0.027807	3.472128
190.658100	3778.201645	1.716621	0.027736	3.476852
191.041436	3789.192776	1.721625	0.027662	3.481553
191.453920	3800.248716	1.726630	0.027581	3.486279
191.884055	3811.216858	1.731635	0.027498	3.490963
191.966027	3822.288918	1.736640	0.027480	3.495644
192.481183	3833.249853	1.741644	0.027380	3.500322
193.007824	3844.274021	1.746649	0.027279	3.505022
193.442891	3855.287209	1.751654	0.027195	3.509700
193.752082	3866.337954	1.756658	0.027134	3.514373
193.940813	3877.359771	1.761663	0.027096	3.519013
194.103069	3888.369941	1.766668	0.027062	3.523640
194.538518	3899.389142	1.771673	0.026978	3.528296
194.727432	3910.390796	1.776677	0.026940	3.532910
195.311001	3921.380752	1.781682	0.026828	3.537557
195.397951	3932.423648	1.786687	0.026809	3.542165
195.489688	3943.463930	1.791692	0.026789	3.546766
195.699295	3954.446848	1.796696	0.026747	3.551350
196.106932	3965.452358	1.801701	0.026667	3.555960
196.556817	3976.466393	1.806706	0.026580	3.560572
196.906377	3987.500299	1.811710	0.026512	3.565175
197.300846	3998.496599	1.816715	0.026435	3.569762
197.640958	4009.519774	1.821720	0.026369	3.574347
197.945616	4020.567715	1.826725	0.026309	3.578933
198.437553	4031.541052	1.831729	0.026214	3.583503
198.780016	4042.594826	1.836734	0.026147	3.588084
198.953942	4053.587224	1.841739	0.026111	3.592615
199.072030	4064.635293	1.846744	0.026086	3.597157
199.458735	4075.614857	1.851748	0.026011	3.601694
199.890514	4086.646993	1.856753	0.025927	3.606252
200.234900	4097.672451	1.861758	0.025860	3.610792
200.557376	4108.742457	1.866762	0.025797	3.615342
200.641432	4119.722289	1.871767	0.025778	3.619824
201.050559	4130.751351	1.876772	0.025699	3.624355
201.228246	4141.770029	1.881777	0.025663	3.628852
201.597418	4152.807088	1.886781	0.025591	3.633370
202.012671	4163.783559	1.891786	0.025510	3.637864
202.193962	4174.839088	1.896791	0.025473	3.642359
202.623842	4185.813243	1.901795	0.025390	3.646842
202.894102	4196.854344	1.906800	0.025337	3.651329
203.329125	4207.822353	1.911805	0.025252	3.655799
203.674629	4218.876665	1.916810	0.025185	3.660288
204.061565	4229.907533	1.921814	0.025109	3.664767
204.244388	4240.895609	1.926819	0.025072	3.669201
204.510898	4251.931166	1.931824	0.025020	3.673658
204.900474	4262.941001	1.936829	0.024944	3.678113
205.465395	4273.936437	1.941833	0.024835	3.682574
205.709671	4285.006371	1.946838	0.024786	3.687026
205.943977	4295.968145	1.951843	0.024740	3.691428
206.008877	4307.014960	1.956847	0.024725	3.695841
206.122720	4318.009710	1.961852	0.024701	3.700234
206.643684	4329.031409	1.966857	0.024600	3.704674
206.910809	4340.054417	1.971862	0.024547	3.709083
207.067102	4351.081100	1.976866	0.024515	3.713476
207.266203	4362.086204	1.981871	0.024475	3.717861
207.350988	4373.114480	1.986876	0.024457	3.722237
207.895225	4384.093327	1.991881	0.024352	3.726636
208.159389	4395.123505	1.996885	0.024300	3.731021
208.747948	4406.114478	2.001890	0.024186	3.735419
209.039789	4417.152151	2.006895	0.024129	3.739799
