Wed Nov 23 18:09:14 2022

Number of Points = 2200
Depth (nm)	Load (µN)	Time (s)	Depth (V)	Load (V)
-8.419908	1.140056	0.000000	0.017500	1.008705
0.000000	5.987788	0.005005	0.015918	1.020261
8.024715	15.236068	0.010009	0.014410	1.037733
9.943155	27.155214	0.015014	0.014047	1.055487
11.349595	38.589090	0.020019	0.013781	1.072021
12.355221	49.900298	0.025024	0.013589	1.087937
13.224454	61.091821	0.030028	0.013423	1.103396
13.907904	72.288295	0.035033	0.013292	1.118557
16.929354	82.771282	0.040038	0.012723	1.133706
20.103207	94.007010	0.045043	0.012124	1.149688
22.253848	105.246986	0.050047	0.011718	1.164979
24.106122	116.498562	0.055052	0.011368	1.179948
25.799577	127.637637	0.060057	0.011047	1.194518
27.532351	138.758812	0.065061	0.010719	1.208907
29.209603	149.898411	0.070066	0.010402	1.223123
30.993926	160.962807	0.075071	0.010064	1.237131
32.800219	172.075005	0.080076	0.009723	1.251048
34.263518	183.220961	0.085080	0.009445	1.264703
35.749092	194.355390	0.090085	0.009164	1.278208
36.974901	205.473275	0.095090	0.008931	1.291444
38.454292	216.587204	0.100094	0.008651	1.304644
39.695392	227.656786	0.105099	0.008415	1.317565
41.095124	238.739092	0.110104	0.008150	1.330437
42.235707	249.853988	0.115109	0.007933	1.343118
43.234845	260.949721	0.120113	0.007743	1.355603
44.255345	272.039151	0.125118	0.007548	1.367975
45.198934	283.142324	0.130123	0.007369	1.380220
46.414508	294.132861	0.135128	0.007138	1.392342
47.243559	305.309855	0.140132	0.006980	1.404408
48.670085	316.251290	0.145137	0.006709	1.416350
49.876688	327.347312	0.150142	0.006480	1.428268
51.026207	338.465105	0.155146	0.006262	1.440089
51.883501	349.546022	0.160151	0.006098	1.451668
52.990440	360.595404	0.165156	0.005887	1.463214
54.062789	371.664335	0.170161	0.005684	1.474676
54.896598	382.751946	0.175165	0.005524	1.485982
56.047221	393.779845	0.180170	0.005306	1.497256
57.307652	404.769080	0.185175	0.005066	1.508446
58.707201	415.862098	0.190180	0.004801	1.519701
59.634461	426.972241	0.195184	0.004624	1.530727
60.888467	438.005934	0.200189	0.004386	1.541712
61.821014	449.093646	0.205194	0.004209	1.552560
63.120460	460.078034	0.210198	0.003962	1.563359
64.161823	471.192040	0.215203	0.003764	1.574119
65.294453	482.224368	0.220208	0.003549	1.584759
66.475151	493.260641	0.225213	0.003324	1.595347
67.451376	504.380826	0.230217	0.003138	1.605874
68.523997	515.381406	0.235222	0.002934	1.616255
69.362992	526.504264	0.240227	0.002774	1.626605
70.482263	537.474858	0.245232	0.002562	1.636841
71.544498	548.545065	0.250236	0.002359	1.647084
72.543244	559.602804	0.255241	0.002169	1.657232
73.545611	570.652701	0.260246	0.001979	1.667312
74.081550	581.760461	0.265250	0.001875	1.677237
75.407379	592.676602	0.270255	0.001624	1.687180
76.149154	603.848543	0.275260	0.001482	1.697106
77.080478	614.851140	0.280265	0.001304	1.706886
78.050383	625.864897	0.285269	0.001120	1.716632
78.829174	636.963695	0.290274	0.000971	1.726337
79.516044	648.016719	0.295279	0.000839	1.735920
80.376786	659.023310	0.300283	0.000675	1.745464
81.217918	670.066125	0.305288	0.000514	1.754980
82.199328	681.111000	0.310293	0.000327	1.764487
82.770675	692.203698	0.315298	0.000217	1.773862
83.834794	703.163827	0.320302	0.000015	1.783221
84.642205	714.242387	0.325307	-0.000139	1.792555
85.482338	725.288811	0.330312	-0.000300	1.801822
86.273610	736.321447	0.335317	-0.000451	1.811017
87.112126	747.373699	0.340321	-0.000611	1.820194
87.638195	758.423037	0.345326	-0.000712	1.829235
88.610056	769.429648	0.350331	-0.000897	1.838321
89.252545	780.499382	0.355335	-0.001021	1.847321
90.369026	791.473913	0.360340	-0.001233	1.856332
91.240700	802.549971	0.365345	-0.001399	1.865313
91.910618	813.620898	0.370350	-0.001528	1.874190
92.568856	824.636254	0.375354	-0.001654	1.882979
93.626794	835.645721	0.380359	-0.001855	1.891830
94.646139	846.655298	0.385364	-0.002049	1.900629
95.705706	857.697938	0.390369	-0.002251	1.909424
96.191750	868.812325	0.395373	-0.002345	1.918080
97.005127	879.815098	0.400378	-0.002500	1.926698
97.847585	890.825318	0.405383	-0.002661	1.935291
98.706203	901.861094	0.410387	-0.002825	1.943869
99.664972	912.889586	0.415392	-0.003007	1.952430
100.505890	923.943630	0.420397	-0.003168	1.960942
100.948354	935.022673	0.425402	-0.003254	1.969332
101.665740	946.023059	0.430406	-0.003391	1.977699
102.499201	957.019897	0.435411	-0.003550	1.986057
103.119053	968.104920	0.440416	-0.003669	1.994390
103.757810	979.109499	0.445421	-0.003792	2.002634
104.524361	990.165116	0.450425	-0.003938	2.010914
104.844212	1001.225403	0.455430	-0.004001	2.019051
105.796238	1012.198997	0.460435	-0.004182	2.027250
106.306292	1023.270623	0.465439	-0.004281	2.035376
106.863864	1034.299094	0.470444	-0.004388	2.043451
107.600487	1045.326674	0.475449	-0.004529	2.051537
108.393571	1056.336093	0.480454	-0.004681	2.059592
109.038624	1067.371765	0.485458	-0.004804	2.067598
109.906542	1078.422779	0.490463	-0.004970	2.075637
110.062252	1089.485418	0.495468	-0.005002	2.083482
111.140895	1100.429329	0.500472	-0.005207	2.091435
111.766880	1111.513452	0.505477	-0.005327	2.099347
112.276873	1122.550337	0.510482	-0.005426	2.107169
112.858810	1133.581782	0.515487	-0.005538	2.114976
113.545861	1144.571476	0.520491	-0.005669	2.122749
113.978939	1155.666149	0.525496	-0.005753	2.130506
114.594913	1166.661295	0.530501	-0.005872	2.138210
115.202362	1177.661552	0.535506	-0.005988	2.145887
115.911394	1188.707762	0.540510	-0.006124	2.153591
116.769243	1199.692940	0.545515	-0.006288	2.161260
117.469025	1210.789028	0.550520	-0.006422	2.168941
117.707808	1221.840299	0.555524	-0.006469	2.176459
118.696334	1232.782008	0.560529	-0.006657	2.184047
119.142935	1243.865992	0.565534	-0.006744	2.191582
119.806979	1254.875367	0.570539	-0.006871	2.199089
120.684358	1265.850731	0.575543	-0.007039	2.206597
121.342895	1276.957534	0.580548	-0.007165	2.214116
121.573863	1287.986364	0.585553	-0.007211	2.221464
122.398429	1298.968606	0.590558	-0.007369	2.228888
122.987280	1309.996898	0.595562	-0.007482	2.236265
123.940318	1321.016365	0.600567	-0.007663	2.243691
124.459829	1332.082297	0.605572	-0.007764	2.251029
124.804663	1343.135360	0.610576	-0.007831	2.258296
125.404598	1354.106476	0.615581	-0.007946	2.265542
126.112305	1365.134772	0.620586	-0.008082	2.272825
126.521026	1376.185725	0.625591	-0.008161	2.280034
127.243246	1387.176718	0.630595	-0.008299	2.287249
127.680999	1398.274804	0.635600	-0.008384	2.294449
128.561515	1409.168622	0.640605	-0.008552	2.301591
129.062818	1420.289562	0.645610	-0.008649	2.308774
129.774296	1431.288815	0.650614	-0.008785	2.315901
130.246712	1442.333843	0.655619	-0.008877	2.322986
130.992663	1453.309143	0.660624	-0.009019	2.330062
131.976011	1464.352679	0.665628	-0.009207	2.337208
132.454310	1475.423878	0.670633	-0.009299	2.344245
132.800534	1486.437985	0.675638	-0.009367	2.351197
133.098457	1497.472375	0.680643	-0.009425	2.358132
133.583781	1508.479531	0.685647	-0.009519	2.365068
134.174714	1519.505836	0.690652	-0.009633	2.372017
134.431733	1530.545226	0.695657	-0.009684	2.378885
135.357492	1541.485019	0.700661	-0.009860	2.385808
135.985244	1552.562840	0.705666	-0.009981	2.392735
136.627647	1563.599707	0.710671	-0.010104	2.399620
137.120818	1574.600272	0.715676	-0.010199	2.406432
138.045609	1585.625787	0.720680	-0.010376	2.413327
138.698261	1596.631152	0.725685	-0.010501	2.420135
139.537401	1607.665972	0.730690	-0.010661	2.426979
139.855808	1618.741206	0.735695	-0.010723	2.433725
140.362770	1629.727979	0.740699	-0.010821	2.440436
140.887530	1640.766767	0.745704	-0.010922	2.447163
141.691618	1651.763168	0.750709	-0.011076	2.453900
142.173489	1662.794608	0.755713	-0.011169	2.460577
142.521958	1673.847740	0.760718	-0.011237	2.467223
142.879165	1684.869621	0.765723	-0.011307	2.473834
143.533408	1695.858814	0.770728	-0.011433	2.480465
144.068136	1706.891065	0.775732	-0.011536	2.487081
144.633300	1717.929245	0.780737	-0.011644	2.493688
145.182743	1728.941681	0.785742	-0.011750	2.500260
145.875478	1739.938707	0.790747	-0.011883	2.506832
146.110487	1751.022815	0.795751	-0.011930	2.513351
146.800591	1761.979177	0.800756	-0.012062	2.519865
147.360298	1773.019739	0.805761	-0.012170	2.526386
147.959982	1784.066183	0.810765	-0.012285	2.532900
148.021865	1795.103782	0.815770	-0.012299	2.539293
148.815804	1806.063537	0.820775	-0.012451	2.545761
149.195521	1817.126963	0.825780	-0.012525	2.552194
149.859780	1828.140200	0.830784	-0.012652	2.558636
150.086357	1839.187353	0.835789	-0.012698	2.564999
150.997485	1850.161632	0.840794	-0.012871	2.571431
151.227534	1861.295794	0.845799	-0.012917	2.577813
151.896024	1872.186064	0.850803	-0.013045	2.584121
152.556867	1883.246996	0.855808	-0.013172	2.590508
153.186537	1894.249631	0.860813	-0.013293	2.596841
153.630509	1905.306496	0.865817	-0.013379	2.603155
154.116094	1916.301641	0.870822	-0.013473	2.609427
154.368381	1927.358957	0.875827	-0.013523	2.615677
154.861637	1938.346530	0.880832	-0.013618	2.621915
155.292429	1949.378363	0.885836	-0.013702	2.628152
155.980521	1960.372599	0.890841	-0.013834	2.634399
156.435936	1971.436226	0.895846	-0.013922	2.640629
156.687342	1982.451452	0.900850	-0.013972	2.646780
157.075762	1993.485794	0.905855	-0.014047	2.652952
157.588165	2004.459091	0.910860	-0.014146	2.659098
158.124405	2015.488354	0.915865	-0.014250	2.665264
158.884348	2026.491115	0.920869	-0.014395	2.671441
159.170090	2037.571404	0.925874	-0.014451	2.677562
159.537988	2048.558811	0.930879	-0.014523	2.683634
159.987157	2059.557902	0.935884	-0.014610	2.689712
160.728953	2070.541645	0.940888	-0.014752	2.695818
161.392726	2081.583381	0.945893	-0.014879	2.701928
162.036500	2092.616332	0.950898	-0.015003	2.708016
162.149717	2103.671643	0.955902	-0.015027	2.714012
162.622253	2114.659823	0.960907	-0.015118	2.720019
163.190899	2125.664729	0.965912	-0.015227	2.726038
163.898703	2136.688188	0.970917	-0.015363	2.732077
164.307968	2147.735640	0.975921	-0.015443	2.738066
164.692500	2158.716771	0.980926	-0.015517	2.744001
165.133299	2169.769554	0.985931	-0.015603	2.749971
165.660236	2180.781187	0.990936	-0.015704	2.755921
166.253712	2191.778806	0.995940	-0.015819	2.761861
166.903687	2202.815618	1.000945	-0.015943	2.767819
167.291005	2213.852710	1.005950	-0.016019	2.773720
167.492134	2224.876562	1.010954	-0.016059	2.779571
167.817946	2235.886204	1.015959	-0.016123	2.785422
168.254612	2246.894385	1.020964	-0.016208	2.791279
168.871398	2257.909498	1.025969	-0.016326	2.797156
169.442043	2268.930643	1.030973	-0.016436	2.803016
169.720065	2279.979696	1.035978	-0.016491	2.808831
170.283601	2290.970564	1.040983	-0.016599	2.814650
170.901171	2301.972918	1.045988	-0.016718	2.820472
171.461004	2313.016650	1.050992	-0.016826	2.826293
171.979672	2324.039855	1.055997	-0.016926	2.832085
172.477009	2335.033596	1.061002	-0.017022	2.837846
172.638625	2346.099481	1.066006	-0.017055	2.843579
173.163213	2357.083744	1.071011	-0.017156	2.849317
173.473884	2368.125728	1.076016	-0.017217	2.855038
174.051293	2379.114144	1.081021	-0.017328	2.860763
174.417339	2390.155514	1.086025	-0.017399	2.866469
174.757923	2401.200229	1.091030	-0.017466	2.872162
174.999997	2412.181019	1.096035	-0.017514	2.877796
175.511200	2423.191935	1.101039	-0.017613	2.883476
176.212496	2434.212428	1.106044	-0.017747	2.889179
176.709996	2445.264925	1.111049	-0.017843	2.894855
177.032212	2456.275305	1.116054	-0.017907	2.900471
177.438011	2467.265123	1.121058	-0.017985	2.906079
177.731824	2478.326379	1.126063	-0.018043	2.911695
178.448942	2489.265187	1.131068	-0.018181	2.917304
178.785767	2500.366168	1.136073	-0.018246	2.922924
178.925059	2511.382464	1.141077	-0.018275	2.928461
179.476333	2522.346880	1.146082	-0.018381	2.934025
180.173484	2533.376087	1.151087	-0.018515	2.939632
180.645456	2544.397666	1.156091	-0.018606	2.945190
181.165835	2555.439125	1.161096	-0.018707	2.950755
181.511952	2566.452809	1.166101	-0.018774	2.956270
182.068842	2577.465885	1.171106	-0.018882	2.961805
182.411966	2588.487125	1.176110	-0.018949	2.967302
182.911296	2599.497159	1.181115	-0.019045	2.972806
183.567513	2610.497906	1.186120	-0.019171	2.978319
184.185881	2621.529939	1.191125	-0.019290	2.983831
184.474237	2632.579381	1.196129	-0.019347	2.989293
184.786352	2643.595604	1.201134	-0.019408	2.994732
184.864772	2654.621339	1.206139	-0.019425	3.000131
185.594836	2665.581246	1.211143	-0.019565	3.005584
185.994746	2676.650163	1.216148	-0.019643	3.011031
186.399418	2687.627554	1.221153	-0.019721	3.016425
186.643448	2698.671933	1.226158	-0.019770	3.021819
187.107396	2709.682045	1.231162	-0.019860	3.027217
187.596904	2720.702741	1.236167	-0.019954	3.032615
188.261707	2731.698324	1.241172	-0.020082	3.038017
188.656799	2742.744186	1.246177	-0.020159	3.043394
189.311189	2753.759279	1.251181	-0.020284	3.048784
189.483117	2764.778935	1.256186	-0.020319	3.054097
189.879093	2775.794927	1.261191	-0.020396	3.059431
190.338635	2786.789450	1.266195	-0.020485	3.064755
191.109577	2797.805257	1.271200	-0.020633	3.070123
191.509035	2808.857781	1.276205	-0.020710	3.075447
191.740719	2819.890358	1.281210	-0.020756	3.080729
191.959885	2830.874121	1.286214	-0.020800	3.085976
192.451774	2841.913351	1.291219	-0.020895	3.091279
192.665313	2852.930985	1.296224	-0.020938	3.096524
193.009669	2863.918939	1.301228	-0.021005	3.101764
193.325146	2874.964184	1.306233	-0.021067	3.107018
193.754320	2885.961080	1.311238	-0.021151	3.112256
194.241551	2896.989097	1.316243	-0.021245	3.117508
194.681866	2907.990129	1.321247	-0.021330	3.122732
195.353478	2919.016703	1.326252	-0.021459	3.127990
195.655205	2930.049684	1.331257	-0.021518	3.133192
195.780932	2941.080735	1.336262	-0.021545	3.138360
196.171422	2952.068524	1.341266	-0.021621	3.143536
196.474921	2963.108388	1.346271	-0.021680	3.148715
197.029665	2974.102607	1.351276	-0.021787	3.153899
197.315948	2985.146875	1.356280	-0.021843	3.159061
197.737725	2996.124713	1.361285	-0.021925	3.164202
198.043813	3007.172194	1.366290	-0.021985	3.169351
198.524651	3018.154508	1.371295	-0.022078	3.174485
199.324472	3029.187599	1.376299	-0.022231	3.179677
199.854638	3040.190381	1.381304	-0.022333	3.184810
200.116428	3051.276588	1.386309	-0.022385	3.189938
200.308675	3062.244407	1.391314	-0.022424	3.194993
200.640724	3073.290220	1.396318	-0.022489	3.200095
201.072744	3084.268291	1.401323	-0.022573	3.205171
201.543885	3095.309016	1.406328	-0.022664	3.210272
201.940638	3106.278239	1.411332	-0.022741	3.215323
202.507723	3117.347737	1.416337	-0.022850	3.220433
202.787957	3128.346288	1.421342	-0.022906	3.225466
203.272966	3139.359028	1.426347	-0.022999	3.230524
203.713065	3150.370730	1.431351	-0.023085	3.235568
204.233074	3161.397098	1.436356	-0.023185	3.240620
204.659217	3172.415606	1.441361	-0.023268	3.245649
204.740930	3183.467432	1.446366	-0.023286	3.250641
204.970634	3194.419550	1.451370	-0.023332	3.255599
205.313867	3205.471470	1.456375	-0.023399	3.260609
206.065085	3216.446820	1.461380	-0.023542	3.265629
206.757606	3227.517314	1.466384	-0.023675	3.270676
206.812753	3238.527290	1.471389	-0.023688	3.275607
207.009711	3249.560281	1.476394	-0.023728	3.280559
207.487568	3260.534878	1.481399	-0.023820	3.285513
207.933131	3271.593278	1.486403	-0.023907	3.290492
208.485829	3282.561749	1.491408	-0.024013	3.295438
208.790501	3293.619236	1.496413	-0.024073	3.300384
209.098538	3304.617930	1.501417	-0.024133	3.305297
209.497236	3315.640737	1.506422	-0.024211	3.310225
210.055036	3326.623918	1.511427	-0.024318	3.315148
210.392709	3337.702656	1.516432	-0.024384	3.320078
210.791753	3348.669474	1.521436	-0.024462	3.324959
211.151256	3359.724360	1.526441	-0.024532	3.329866
211.140479	3370.731246	1.531446	-0.024533	3.334699
211.588943	3381.737722	1.536451	-0.024620	3.339582
212.026842	3392.723065	1.541455	-0.024705	3.344447
212.681163	3403.781040	1.546460	-0.024830	3.349363
212.920121	3414.773175	1.551465	-0.024878	3.354193
213.272934	3425.815301	1.556469	-0.024947	3.359050
213.564267	3436.804915	1.561474	-0.025004	3.363871
214.003584	3447.838765	1.566479	-0.025089	3.368721
214.494924	3458.830468	1.571484	-0.025184	3.373553
214.842628	3469.872863	1.576488	-0.025252	3.378382
215.182115	3480.876679	1.581493	-0.025319	3.383187
215.448331	3491.919112	1.586498	-0.025371	3.387992
215.882939	3502.885599	1.591503	-0.025456	3.392778
216.380054	3513.934642	1.596507	-0.025552	3.397600
216.832384	3524.927416	1.601512	-0.025639	3.402386
217.174945	3535.995730	1.606517	-0.025706	3.407184
217.383060	3546.976144	1.611521	-0.025748	3.411922
217.545588	3558.016754	1.616526	-0.025781	3.416673
217.660332	3569.018265	1.621531	-0.025805	3.421396
218.090998	3580.036697	1.626536	-0.025889	3.426156
218.687696	3591.006597	1.631540	-0.026004	3.430909
218.940482	3602.089607	1.636545	-0.026054	3.435662
219.395986	3613.060995	1.641550	-0.026142	3.440385
219.529622	3624.147768	1.646555	-0.026170	3.445113
220.086955	3635.081542	1.651559	-0.026277	3.449820
220.354298	3646.155619	1.656564	-0.026330	3.454545
220.473093	3657.150927	1.661569	-0.026355	3.459213
220.789047	3668.159474	1.666573	-0.026417	3.463903
221.241403	3679.171685	1.671578	-0.026505	3.468604
221.362774	3690.214478	1.676583	-0.026530	3.473273
221.794345	3701.197623	1.681588	-0.026614	3.477947
222.097519	3712.237788	1.686592	-0.026673	3.482623
222.351167	3723.238913	1.691597	-0.026724	3.487271
222.826889	3734.255378	1.696602	-0.026816	3.491945
223.245312	3745.253447	1.701606	-0.026897	3.496598
223.689795	3756.272902	1.706611	-0.026983	3.501257
224.181299	3767.298385	1.711616	-0.027078	3.505917
224.776474	3778.298808	1.716621	-0.027193	3.510572
224.922683	3789.353151	1.721625	-0.027223	3.515193
225.284041	3800.351745	1.726630	-0.027293	3.519808
225.889371	3811.359864	1.731635	-0.027410	3.524449
226.089982	3822.422670	1.736640	-0.027450	3.529061
226.344173	3833.395901	1.741644	-0.027500	3.533636
226.824052	3844.415440	1.746649	-0.027593	3.538249
227.239421	3855.402964	1.751654	-0.027674	3.542835
227.637113	3866.478014	1.756658	-0.027751	3.547450
227.843011	3877.444443	1.761663	-0.027792	3.551992
228.002931	3888.480740	1.766668	-0.027825	3.556553
228.384990	3899.493647	1.771673	-0.027900	3.561122
228.909826	3910.516935	1.776677	-0.028001	3.565705
229.220646	3921.504893	1.781682	-0.028062	3.570245
229.396883	3932.558461	1.786687	-0.028098	3.574790
229.652711	3943.562932	1.791692	-0.028148	3.579319
230.026763	3954.565242	1.796696	-0.028221	3.583854
230.467163	3965.605453	1.801701	-0.028307	3.588405
230.678335	3976.603958	1.806706	-0.028349	3.592909
230.962969	3987.626809	1.811710	-0.028405	3.597425
231.100546	3998.642985	1.816715	-0.028434	3.601917
231.574645	4009.638902	1.821720	-0.028525	3.606431
231.718924	4020.688151	1.826725	-0.028555	3.610925
232.245918	4031.651211	1.831729	-0.028657	3.615420
232.815677	4042.694309	1.836734	-0.028766	3.619947
232.956296	4053.719253	1.841739	-0.028796	3.624414
233.422324	4064.714391	1.846744	-0.028886	3.628898
233.533879	4075.768421	1.851748	-0.028909	3.633363
234.106295	4086.767999	1.856753	-0.029020	3.637849
234.715387	4097.782101	1.861758	-0.029137	3.642340
235.106840	4108.846687	1.866762	-0.029213	3.646822
235.346006	4119.829723	1.871767	-0.029260	3.651249
235.559750	4130.879029	1.876772	-0.029303	3.655695
235.936908	4141.872485	1.881777	-0.029377	3.660131
236.198690	4152.934922	1.886781	-0.029429	3.664576
236.378698	4163.898542	1.891786	-0.029465	3.668968
236.665780	4174.957980	1.896791	-0.029522	3.673404
236.941219	4185.945378	1.901795	-0.029576	3.677805
237.346244	4196.979917	1.906800	-0.029655	3.682233
237.873458	4207.953709	1.911805	-0.029756	3.686643
238.317308	4218.980180	1.916810	-0.029842	3.691061
238.713852	4230.009698	1.921814	-0.029920	3.695470
239.104181	4241.029871	1.926819	-0.029996	3.699869
239.087856	4252.044246	1.931824	-0.029995	3.704218
239.506570	4263.058373	1.936829	-0.030076	3.708607
239.853962	4274.051306	1.941833	-0.030144	3.712975
240.227117	4285.123030	1.946838	-0.030217	3.717371
240.597525	4296.089725	1.951843	-0.030289	3.721721
240.911632	4307.128671	1.956847	-0.030351	3.726088
241.210121	4318.094087	1.961852	-0.030410	3.730420
241.558723	4329.164832	1.966857	-0.030478	3.734792
242.099516	4340.132294	1.971862	-0.030582	3.739139
