Wed Nov 23 19:25:19 2022

Number of Points = 2200
Depth (nm)	Load (µN)	Time (s)	Depth (V)	Load (V)
0.000000	2.111627	0.000000	0.022239	0.996367
1.834778	7.672762	0.005005	0.021893	1.005551
3.856064	16.581553	0.010009	0.021512	1.019599
5.961335	27.135092	0.015014	0.021114	1.035840
8.069036	38.152178	0.020019	0.020716	1.052479
10.421891	49.238214	0.025024	0.020271	1.069077
12.357010	60.471857	0.030028	0.019906	1.085410
14.508089	71.576391	0.035033	0.019499	1.101433
16.321893	82.788670	0.040038	0.019156	1.117203
18.440857	93.889683	0.045043	0.018756	1.132754
20.328488	105.052037	0.050047	0.018399	1.148061
22.292478	116.180262	0.055052	0.018028	1.163158
23.819864	127.378041	0.060057	0.017738	1.177947
25.539513	138.481221	0.065061	0.017413	1.192522
27.111057	149.623058	0.070066	0.017115	1.206900
28.727566	160.733057	0.075071	0.016809	1.221089
30.570666	171.795205	0.080076	0.016460	1.235156
32.377454	182.886810	0.085080	0.016119	1.249083
34.207629	193.996443	0.090085	0.015772	1.262885
35.910131	205.115861	0.095090	0.015450	1.276495
37.130272	216.310107	0.100094	0.015219	1.289844
38.772064	227.385384	0.105099	0.014908	1.303095
39.921911	238.518878	0.110104	0.014689	1.316077
41.506080	249.515464	0.115109	0.014389	1.328954
42.751438	260.660940	0.120113	0.014153	1.341735
44.275030	271.689016	0.125118	0.013864	1.354376
45.283969	282.873725	0.130123	0.013672	1.366867
46.762364	293.873391	0.135128	0.013392	1.379229
47.744712	305.005015	0.140132	0.013205	1.391430
49.036214	316.052605	0.145137	0.012960	1.403553
50.148632	327.150881	0.150142	0.012748	1.415556
51.370789	338.216304	0.155146	0.012516	1.427466
52.508585	349.276913	0.160151	0.012300	1.439240
53.715773	360.337636	0.165156	0.012071	1.450943
54.689918	371.460736	0.170161	0.011885	1.462530
55.783026	382.500487	0.175165	0.011677	1.473985
56.628685	393.589117	0.180170	0.011516	1.485311
57.613921	404.641080	0.185175	0.011328	1.496564
58.718212	415.672760	0.190180	0.011118	1.507755
60.160646	426.682340	0.195184	0.010845	1.518958
61.251737	437.801879	0.200189	0.010638	1.530064
62.359221	448.866734	0.205194	0.010427	1.541042
63.348694	459.923697	0.210198	0.010239	1.551894
64.505402	470.959828	0.215203	0.010019	1.562708
65.216178	482.080652	0.220208	0.009883	1.573376
66.559967	493.054240	0.225213	0.009628	1.584046
67.350469	504.171058	0.230217	0.009477	1.594593
68.240865	515.228503	0.235222	0.009307	1.605048
69.176439	526.268737	0.240227	0.009129	1.615435
69.988731	537.344994	0.245232	0.008974	1.625748
70.994624	548.340562	0.250236	0.008782	1.635984
72.015044	559.401770	0.255241	0.008588	1.646220
72.928397	570.446791	0.260246	0.008414	1.656344
73.839790	581.506135	0.265250	0.008240	1.666417
74.820851	592.532181	0.270255	0.008053	1.676423
75.875450	603.596883	0.275260	0.007853	1.686424
76.701109	614.660402	0.280265	0.007695	1.696295
77.704139	625.690771	0.285269	0.007504	1.706134
78.218662	636.793428	0.290274	0.007405	1.715830
79.319383	647.766956	0.295279	0.007195	1.725538
80.020627	658.854324	0.300283	0.007061	1.735168
81.083755	669.833619	0.305288	0.006859	1.744761
82.082556	680.906449	0.310293	0.006669	1.754360
82.673010	692.014782	0.315298	0.006555	1.763816
83.409321	703.018099	0.320302	0.006414	1.773177
84.219898	714.064247	0.325307	0.006259	1.782546
84.997213	725.082358	0.330312	0.006111	1.791832
86.137426	736.101073	0.335317	0.005894	1.801175
86.771828	747.190349	0.340321	0.005772	1.810382
87.758593	758.188485	0.345326	0.005585	1.819568
88.525194	769.255477	0.350331	0.005438	1.828701
89.237041	780.305917	0.355335	0.005302	1.837760
89.889783	791.348730	0.360340	0.005176	1.846751
90.790772	802.373036	0.365345	0.005005	1.855753
91.566652	813.397042	0.370350	0.004856	1.864676
92.316161	824.451245	0.375354	0.004713	1.873573
93.067076	835.488674	0.380359	0.004569	1.882415
93.837287	846.539271	0.385364	0.004422	1.891230
94.649263	857.519683	0.390369	0.004267	1.899961
95.473218	868.601610	0.395373	0.004110	1.908733
96.006350	879.668527	0.400378	0.004007	1.917376
96.774319	890.671956	0.405383	0.003860	1.925994
97.567230	901.662439	0.410387	0.003708	1.934569
98.705735	912.685073	0.415392	0.003492	1.943221
99.488129	923.754644	0.420397	0.003343	1.951777
100.334007	934.793392	0.425402	0.003181	1.960289
100.676435	945.883981	0.430406	0.003114	1.968672
101.664701	956.848133	0.435411	0.002926	1.977091
102.088418	967.932255	0.440416	0.002844	1.985419
103.071900	978.911550	0.445421	0.002656	1.993777
103.686654	989.991081	0.450425	0.002538	2.002080
104.308009	1001.006256	0.455430	0.002419	2.010303
104.808290	1012.061837	0.460435	0.002322	2.018491
105.722739	1023.034194	0.465439	0.002148	2.026689
106.680437	1034.087936	0.470444	0.001966	2.034922
107.511164	1045.122950	0.475449	0.001807	2.043078
108.109640	1056.193298	0.480454	0.001692	2.051169
108.824732	1067.199699	0.485458	0.001555	2.059211
109.420602	1078.247835	0.490463	0.001441	2.067221
110.014041	1089.273577	0.495468	0.001327	2.075185
110.800225	1100.280769	0.500472	0.001176	2.083151
111.681036	1111.308218	0.505477	0.001008	2.091123
112.034057	1122.399023	0.510482	0.000939	2.098983
112.666699	1133.386677	0.515487	0.000818	2.106808
113.512373	1144.387695	0.520491	0.000656	2.114663
114.301035	1155.438431	0.525496	0.000506	2.122510
114.826772	1166.502487	0.530501	0.000404	2.130276
115.506397	1177.519297	0.535506	0.000274	2.138016
115.961802	1188.548915	0.540510	0.000186	2.145685
116.672239	1199.554366	0.545515	0.000050	2.153369
117.407801	1210.561146	0.550520	-0.000091	2.161032
118.244915	1221.614315	0.555524	-0.000251	2.168722
118.626256	1232.693937	0.560529	-0.000325	2.176299
119.139432	1243.694980	0.565534	-0.000424	2.183826
119.628847	1254.702396	0.570539	-0.000519	2.191326
120.366727	1265.730988	0.575543	-0.000660	2.198871
121.022813	1276.746824	0.580548	-0.000786	2.206362
121.826888	1287.787680	0.585553	-0.000939	2.213878
122.092876	1298.856976	0.590558	-0.000992	2.221267
122.631978	1309.842435	0.595562	-0.001096	2.228636
123.170578	1320.876537	0.600567	-0.001199	2.236013
123.852906	1331.891679	0.605572	-0.001330	2.243385
124.594275	1342.893566	0.610576	-0.001472	2.250737
125.166131	1354.007003	0.615581	-0.001582	2.258100
125.295745	1365.014053	0.620586	-0.001609	2.265273
125.999826	1375.982268	0.625591	-0.001744	2.272524
126.801533	1386.982918	0.630595	-0.001897	2.279792
127.585124	1398.039689	0.635600	-0.002047	2.287070
128.182720	1409.096968	0.640605	-0.002162	2.294285
128.428101	1420.137611	0.645610	-0.002211	2.301391
129.099096	1431.116486	0.650614	-0.002339	2.308527
129.771147	1442.144851	0.655619	-0.002468	2.315671
130.291038	1453.206354	0.660624	-0.002568	2.322783
130.827191	1464.215704	0.665628	-0.002672	2.329843
131.457976	1475.218474	0.670633	-0.002793	2.336897
131.909558	1486.281278	0.675638	-0.002880	2.343930
132.342137	1497.268593	0.680643	-0.002964	2.350891
132.984493	1508.312254	0.685647	-0.003087	2.357909
133.502469	1519.320075	0.690652	-0.003187	2.364859
134.416144	1530.340072	0.695657	-0.003361	2.371876
134.921692	1541.380896	0.700661	-0.003459	2.378803
135.611993	1552.377266	0.705666	-0.003591	2.385719
136.056096	1563.453412	0.710671	-0.003677	2.392613
136.767734	1574.435326	0.715676	-0.003814	2.399485
137.054322	1585.511605	0.720680	-0.003870	2.406308
137.610677	1596.514164	0.725685	-0.003977	2.413122
138.133753	1607.529236	0.730690	-0.004078	2.419917
138.599717	1618.552742	0.735695	-0.004168	2.426686
139.167492	1629.579281	0.740699	-0.004278	2.433458
139.820024	1640.580052	0.745704	-0.004403	2.440213
140.227101	1651.630681	0.750709	-0.004482	2.446930
140.839962	1662.644483	0.755713	-0.004600	2.453648
141.355200	1673.656644	0.760718	-0.004699	2.460326
142.054509	1684.665389	0.765723	-0.004833	2.467020
142.821687	1695.685047	0.770728	-0.004980	2.473715
143.608772	1706.721559	0.775732	-0.005130	2.480406
144.166339	1717.753443	0.780737	-0.005237	2.487032
144.758986	1728.800708	0.785742	-0.005351	2.493656
145.215496	1739.780705	0.790747	-0.005440	2.500196
145.880576	1750.814390	0.795751	-0.005567	2.506790
146.422795	1761.862078	0.800756	-0.005672	2.513352
146.956936	1772.864305	0.805761	-0.005775	2.519868
147.296906	1783.901152	0.810765	-0.005841	2.526351
147.959490	1794.915533	0.815770	-0.005968	2.532865
148.402670	1805.937489	0.820775	-0.006054	2.539325
149.040093	1816.943551	0.825780	-0.006176	2.545796
149.464643	1827.986939	0.830784	-0.006259	2.552232
150.176588	1839.002073	0.835789	-0.006395	2.558689
150.407233	1850.039802	0.840794	-0.006441	2.565053
151.193962	1861.033260	0.845799	-0.006592	2.571478
151.498595	1872.161524	0.850803	-0.006651	2.577876
152.296204	1883.068748	0.855808	-0.006804	2.584222
152.533097	1894.133988	0.860813	-0.006851	2.590540
153.053288	1905.130743	0.865817	-0.006951	2.596855
153.329830	1916.182926	0.870822	-0.007006	2.603142
154.131343	1927.126346	0.875827	-0.007159	2.609447
154.528773	1938.203480	0.880832	-0.007236	2.615739
155.276021	1949.216960	0.885836	-0.007379	2.622042
155.282412	1960.270514	0.890841	-0.007383	2.628221
155.985394	1971.241679	0.895846	-0.007518	2.634463
156.486272	1982.290460	0.900850	-0.007615	2.640697
157.128985	1993.284530	0.905855	-0.007738	2.646911
157.512111	2004.348645	0.910860	-0.007813	2.653104
158.136141	2015.320670	0.915865	-0.007932	2.659273
158.655422	2026.369288	0.920869	-0.008033	2.665452
159.193407	2037.382011	0.925874	-0.008136	2.671600
159.951748	2048.372042	0.930879	-0.008281	2.677759
160.459408	2059.406086	0.935884	-0.008379	2.683885
160.782722	2070.441329	0.940888	-0.008443	2.689965
161.321501	2081.443025	0.945893	-0.008546	2.696051
161.691814	2092.479789	0.950898	-0.008619	2.702112
162.365164	2103.454829	0.955902	-0.008748	2.708179
162.882094	2114.512182	0.960907	-0.008847	2.714249
163.470777	2125.519087	0.965912	-0.008961	2.720291
163.928326	2136.554196	0.970917	-0.009049	2.726312
164.551513	2147.579652	0.975921	-0.009169	2.732342
165.128056	2158.539420	0.980926	-0.009280	2.738316
165.828039	2169.593763	0.985931	-0.009414	2.744348
166.169558	2180.644059	0.990936	-0.009481	2.750305
166.715321	2191.645367	0.995940	-0.009586	2.756256
167.184467	2202.669256	1.000945	-0.009677	2.762194
167.661425	2213.689679	1.005950	-0.009769	2.768118
168.104339	2224.704203	1.010954	-0.009855	2.774021
168.955125	2235.688207	1.015959	-0.010017	2.779962
169.648371	2246.713291	1.020964	-0.010150	2.785886
170.118754	2257.798872	1.025969	-0.010241	2.791793
170.345130	2268.793300	1.030973	-0.010286	2.797599
170.833638	2279.809293	1.035978	-0.010380	2.803447
171.260460	2290.830384	1.040983	-0.010463	2.809276
171.926602	2301.832354	1.045988	-0.010591	2.815121
172.180585	2312.890362	1.050992	-0.010641	2.820916
172.509351	2323.887469	1.055997	-0.010706	2.826680
173.141421	2334.896133	1.061002	-0.010827	2.832487
173.702917	2345.911315	1.066006	-0.010935	2.838273
174.326722	2356.914056	1.071011	-0.011055	2.844051
174.847432	2367.995425	1.076016	-0.011155	2.849842
175.264453	2378.974479	1.081021	-0.011236	2.855551
175.752753	2389.994859	1.086025	-0.011331	2.861282
176.144857	2401.015041	1.091030	-0.011407	2.866985
176.782490	2412.032267	1.096035	-0.011529	2.872714
177.401293	2423.020426	1.101039	-0.011648	2.878414
177.903359	2434.099495	1.106044	-0.011745	2.884131
178.204845	2445.108229	1.111049	-0.011804	2.889769
178.647975	2456.148431	1.116054	-0.011890	2.895434
178.815906	2467.142465	1.121058	-0.011925	2.901021
179.606636	2478.120869	1.126063	-0.012076	2.906687
180.142126	2489.172345	1.131068	-0.012179	2.912338
180.581802	2500.185077	1.136073	-0.012264	2.917944
181.047228	2511.197330	1.141077	-0.012354	2.923543
181.480238	2522.257336	1.146082	-0.012438	2.929150
181.926705	2533.231200	1.151087	-0.012525	2.934706
182.657803	2544.234965	1.156091	-0.012665	2.940308
183.346880	2555.275222	1.161096	-0.012797	2.945912
183.652535	2566.335552	1.166101	-0.012857	2.951457
183.805103	2577.324306	1.171106	-0.012888	2.956933
184.485272	2588.318185	1.176110	-0.013018	2.962480
184.958470	2599.361355	1.181115	-0.013110	2.968011
185.512656	2610.345439	1.186120	-0.013217	2.973514
186.027415	2621.415078	1.191125	-0.013316	2.979042
186.397111	2632.404109	1.196129	-0.013388	2.984500
186.807718	2643.443998	1.201134	-0.013468	2.989978
187.294774	2654.432440	1.206139	-0.013562	2.995432
187.896777	2665.474602	1.211143	-0.013678	3.000919
188.634409	2676.461644	1.216148	-0.013819	3.006389
189.045909	2687.509155	1.221153	-0.013899	3.011831
189.670005	2698.490793	1.226158	-0.014018	3.017262
189.892472	2709.563801	1.231162	-0.014063	3.022668
190.565620	2720.534742	1.236167	-0.014192	3.028081
190.948676	2731.599984	1.241172	-0.014267	3.033488
191.551362	2742.582166	1.246177	-0.014382	3.038877
191.991219	2753.610467	1.251181	-0.014468	3.044254
192.429676	2764.655277	1.256186	-0.014553	3.049630
192.831700	2775.649583	1.261191	-0.014631	3.054967
193.332447	2786.654353	1.266195	-0.014728	3.060313
193.862062	2797.685346	1.271200	-0.014830	3.065667
194.374843	2808.687568	1.276205	-0.014929	3.070995
194.712102	2819.735390	1.281210	-0.014995	3.076310
195.080285	2830.743622	1.286214	-0.015066	3.081602
195.672033	2841.750261	1.291219	-0.015180	3.086915
196.169451	2852.756365	1.296224	-0.015276	3.092206
196.636981	2863.794663	1.301228	-0.015367	3.097498
196.918618	2874.813447	1.306233	-0.015422	3.102746
197.421517	2885.838145	1.311238	-0.015519	3.108019
198.138686	2896.817553	1.316243	-0.015657	3.113291
198.633398	2907.850036	1.321247	-0.015752	3.118548
199.032740	2918.876516	1.326252	-0.015830	3.123781
199.506592	2929.931321	1.331257	-0.015922	3.129027
199.841284	2940.919890	1.336262	-0.015987	3.134215
200.236631	2951.950012	1.341266	-0.016064	3.139422
200.482200	2962.951692	1.346271	-0.016113	3.144587
200.881206	2973.981777	1.351276	-0.016190	3.149777
201.092169	2984.990762	1.356280	-0.016233	3.154923
201.809732	2995.991614	1.361285	-0.016370	3.160125
202.343026	3007.017325	1.366290	-0.016473	3.165305
202.714715	3018.037914	1.371295	-0.016545	3.170453
203.282539	3029.020273	1.376299	-0.016655	3.175601
203.611599	3040.105537	1.381304	-0.016719	3.180756
203.917546	3051.082126	1.386309	-0.016779	3.185849
204.397130	3062.108374	1.391314	-0.016872	3.190980
204.761711	3073.136569	1.396318	-0.016943	3.196088
205.252802	3084.130379	1.401323	-0.017038	3.201189
205.511100	3095.198810	1.406328	-0.017089	3.206285
205.939265	3106.172270	1.411332	-0.017172	3.211352
206.390101	3117.169279	1.416337	-0.017259	3.216425
206.838658	3128.214294	1.421342	-0.017346	3.221511
207.318241	3139.240764	1.426347	-0.017439	3.226584
207.694500	3150.235704	1.431351	-0.017512	3.231622
208.072174	3161.247089	1.436356	-0.017586	3.236659
208.449544	3172.312028	1.441361	-0.017660	3.241713
208.660574	3183.299948	1.446366	-0.017702	3.246702
209.248204	3194.304844	1.451370	-0.017815	3.251740
209.814579	3205.311302	1.456375	-0.017924	3.256768
210.258865	3216.337003	1.461380	-0.018010	3.261781
210.646287	3227.358819	1.466384	-0.018085	3.266777
210.993988	3238.393935	1.471389	-0.018153	3.271767
211.478165	3249.396042	1.476394	-0.018247	3.276751
211.915062	3260.416310	1.481399	-0.018332	3.281730
212.272584	3271.440688	1.486403	-0.018401	3.286692
212.544476	3282.471430	1.491408	-0.018455	3.291639
212.905675	3293.447931	1.496413	-0.018526	3.296566
213.544082	3304.479134	1.501417	-0.018648	3.301545
213.901200	3315.499073	1.506422	-0.018718	3.306476
214.405938	3326.513655	1.511427	-0.018815	3.311415
214.981154	3337.513881	1.516432	-0.018926	3.316349
215.086649	3348.584921	1.521436	-0.018949	3.321249
215.488301	3359.560196	1.526441	-0.019027	3.326135
215.893750	3370.589277	1.531446	-0.019105	3.331039
216.438883	3381.587717	1.536451	-0.019210	3.335939
216.901376	3392.611247	1.541455	-0.019300	3.340833
217.053974	3403.665342	1.546460	-0.019331	3.345695
217.323215	3414.651382	1.551465	-0.019385	3.350534
217.857388	3425.651241	1.556469	-0.019488	3.355405
218.461564	3436.672279	1.561474	-0.019604	3.360286
218.922527	3447.707843	1.566479	-0.019693	3.365149
219.303731	3458.728325	1.571484	-0.019767	3.369988
219.505099	3469.734143	1.576488	-0.019808	3.374792
219.973270	3480.745243	1.581493	-0.019898	3.379624
220.165534	3491.789143	1.586498	-0.019937	3.384430
220.494998	3502.793967	1.591503	-0.020002	3.389228
220.950456	3513.786043	1.596507	-0.020090	3.394030
221.339056	3524.821468	1.601512	-0.020165	3.398835
221.839686	3535.826436	1.606517	-0.020262	3.403633
222.323260	3546.852167	1.611521	-0.020356	3.408432
222.690339	3557.849893	1.616526	-0.020427	3.413197
223.135005	3568.883327	1.621531	-0.020513	3.417981
223.382387	3579.899827	1.626536	-0.020562	3.422727
223.771345	3590.915262	1.631540	-0.020638	3.427483
224.125306	3601.934111	1.636545	-0.020707	3.432229
224.474135	3612.951653	1.641550	-0.020776	3.436968
224.840686	3623.954888	1.646555	-0.020847	3.441696
225.312616	3634.998887	1.651559	-0.020938	3.446447
225.680226	3645.997579	1.656564	-0.021010	3.451160
226.115415	3657.007037	1.661569	-0.021094	3.455879
226.570210	3668.023611	1.666573	-0.021182	3.460596
226.881770	3679.061782	1.671578	-0.021244	3.465300
227.265087	3690.047449	1.676583	-0.021318	3.469983
227.477747	3701.100329	1.681588	-0.021361	3.474669
227.902423	3712.087964	1.686592	-0.021443	3.479345
228.236468	3723.117825	1.691597	-0.021509	3.484022
228.529960	3734.126307	1.696602	-0.021567	3.488679
228.889642	3745.154037	1.701606	-0.021637	3.493346
229.455419	3756.151041	1.706611	-0.021746	3.498016
229.856243	3767.167920	1.711616	-0.021824	3.502670
230.132140	3778.182251	1.716621	-0.021878	3.507303
230.465249	3789.222796	1.721625	-0.021943	3.511946
230.960740	3800.211633	1.726630	-0.022039	3.516581
231.465682	3811.229380	1.731635	-0.022136	3.521222
231.940633	3822.268767	1.736640	-0.022228	3.525862
232.144955	3833.286553	1.741644	-0.022269	3.530457
232.420192	3844.279336	1.746649	-0.022324	3.535044
232.768492	3855.303126	1.751654	-0.022392	3.539645
233.242967	3866.319596	1.756658	-0.022484	3.544252
233.573356	3877.342795	1.761663	-0.022548	3.548839
233.963664	3888.350014	1.766668	-0.022624	3.553420
234.347111	3899.374404	1.771673	-0.022699	3.558002
234.855002	3910.354054	1.776677	-0.022797	3.562573
235.432950	3921.407045	1.781682	-0.022908	3.567176
235.798316	3932.392507	1.786687	-0.022979	3.571721
235.942837	3943.445409	1.791692	-0.023009	3.576264
236.466321	3954.419401	1.796696	-0.023110	3.580811
236.838993	3965.462697	1.801701	-0.023183	3.585363
237.284270	3976.471872	1.806706	-0.023269	3.589904
237.737152	3987.499495	1.811710	-0.023357	3.594447
238.286944	3998.484166	1.816715	-0.023463	3.598978
238.559996	4009.556138	1.821720	-0.023517	3.603508
238.804014	4020.576145	1.826725	-0.023565	3.608008
239.157286	4031.535627	1.831729	-0.023634	3.612489
239.525451	4042.576829	1.836734	-0.023706	3.617000
240.052900	4053.599934	1.841739	-0.023808	3.621515
240.415242	4064.601366	1.846744	-0.023879	3.625997
240.344079	4075.652509	1.851748	-0.023868	3.630448
240.750600	4086.617198	1.856753	-0.023947	3.634909
241.240163	4097.665387	1.861758	-0.024041	3.639408
241.706723	4108.729870	1.866762	-0.024132	3.643904
242.017425	4119.719563	1.871767	-0.024193	3.648349
242.417255	4130.750892	1.876772	-0.024271	3.652814
242.740043	4141.790597	1.881777	-0.024334	3.657268
243.022468	4152.753899	1.886781	-0.024390	3.661683
243.468465	4163.808185	1.891786	-0.024476	3.666146
243.828181	4174.800303	1.896791	-0.024546	3.670569
244.177467	4185.825979	1.901795	-0.024614	3.674999
244.513285	4196.842108	1.906800	-0.024680	3.679418
244.648175	4207.865348	1.911805	-0.024708	3.683815
245.026064	4218.865984	1.916810	-0.024782	3.688222
245.414254	4229.912086	1.921814	-0.024857	3.692642
245.697104	4240.907722	1.926819	-0.024913	3.697027
245.875145	4251.924191	1.931824	-0.024949	3.701404
246.263630	4262.913393	1.936829	-0.025025	3.705786
246.468212	4273.961315	1.941833	-0.025066	3.710167
246.962021	4284.944303	1.946838	-0.025161	3.714548
247.498520	4295.964539	1.951843	-0.025265	3.718941
247.852435	4307.008193	1.956847	-0.025334	3.723321
248.099568	4318.021189	1.961852	-0.025383	3.727672
248.209540	4329.043671	1.966857	-0.025406	3.732008
248.503776	4340.060242	1.971862	-0.025464	3.736355
248.945692	4351.035094	1.976866	-0.025550	3.740695
