Wed Nov 23 18:28:15 2022

Number of Points = 2200
Depth (nm)	Load (µN)	Time (s)	Depth (V)	Load (V)
-3.262984	1.292503	0.000000	-0.024210	1.121975
0.000000	7.784972	0.005005	-0.024824	1.131968
1.635127	17.488218	0.010009	-0.025133	1.145214
2.916247	28.355473	0.015014	-0.025376	1.159615
3.675846	39.530651	0.020019	-0.025521	1.173982
4.569021	50.614766	0.025024	-0.025692	1.188124
6.098691	61.558957	0.030028	-0.025981	1.202212
8.095576	72.597704	0.035033	-0.026359	1.216456
9.441547	83.809456	0.040038	-0.026614	1.230456
10.523813	94.992326	0.045043	-0.026820	1.244150
11.485667	106.110968	0.050047	-0.027003	1.257568
12.225556	117.258870	0.055052	-0.027145	1.270784
12.728708	128.401990	0.060057	-0.027242	1.283760
13.741269	139.393375	0.065061	-0.027435	1.296644
14.378132	150.599693	0.070066	-0.027557	1.309488
15.317388	161.584760	0.075071	-0.027736	1.322084
15.892768	172.731564	0.080076	-0.027847	1.334592
16.579926	183.768492	0.085080	-0.027978	1.346909
17.232690	194.863914	0.090085	-0.028104	1.359163
17.889240	205.946857	0.095090	-0.028229	1.371296
18.395640	217.051336	0.100094	-0.028327	1.383287
18.997391	228.072190	0.105099	-0.028443	1.395122
19.630755	239.181918	0.110104	-0.028564	1.406963
20.197689	250.238385	0.115109	-0.028674	1.418624
23.024844	260.729046	0.120113	-0.029207	1.430447
25.954155	272.017809	0.125118	-0.029759	1.443017
26.935190	283.337686	0.130123	-0.029946	1.454802
28.101684	294.384861	0.135128	-0.030168	1.466287
29.629975	305.379396	0.140132	-0.030457	1.477758
30.695383	316.541682	0.145137	-0.030660	1.489141
31.644153	327.587066	0.150142	-0.030841	1.500283
33.012058	338.617525	0.155146	-0.031100	1.511473
33.697057	349.792911	0.160151	-0.031231	1.522484
34.859868	360.755225	0.165156	-0.031452	1.533375
35.815292	371.841005	0.170161	-0.031634	1.544236
37.264186	382.786369	0.175165	-0.031909	1.555054
38.552536	393.927555	0.180170	-0.032153	1.565926
39.958394	404.950294	0.185175	-0.032420	1.576652
40.987786	416.051411	0.190180	-0.032616	1.587252
42.116204	427.091625	0.195184	-0.032830	1.597759
43.054042	438.166573	0.200189	-0.033009	1.608166
44.479455	449.175470	0.205194	-0.033279	1.618602
45.184270	460.306970	0.210198	-0.033414	1.628851
46.414627	471.285325	0.215203	-0.033648	1.639066
47.069612	482.421015	0.220208	-0.033773	1.649175
48.262248	493.389319	0.225213	-0.034000	1.659242
49.160025	504.473266	0.230217	-0.034171	1.669258
50.003472	515.534813	0.235222	-0.034332	1.679178
51.014293	526.533818	0.240227	-0.034524	1.689036
51.919519	537.637089	0.245232	-0.034697	1.698894
52.752419	548.643545	0.250236	-0.034856	1.708590
53.881935	559.668907	0.255241	-0.035071	1.718336
54.559328	570.776326	0.260246	-0.035201	1.727960
55.474737	581.806965	0.265250	-0.035375	1.737538
56.485808	592.794409	0.270255	-0.035567	1.747054
57.754128	603.796964	0.275260	-0.035808	1.756606
58.808395	614.921043	0.280265	-0.036009	1.766144
59.521408	625.986360	0.285269	-0.036145	1.775484
60.336799	636.992124	0.290274	-0.036301	1.784755
61.398857	648.014095	0.295279	-0.036503	1.794061
62.225958	659.070680	0.300283	-0.036661	1.803280
63.180988	670.120363	0.305288	-0.036843	1.812482
63.849853	681.208691	0.310293	-0.036971	1.821588
64.903065	692.157504	0.315298	-0.037171	1.830644
65.443171	703.291327	0.320302	-0.037276	1.839660
66.279178	714.266954	0.325307	-0.037435	1.848588
67.228477	725.305514	0.330312	-0.037616	1.857554
68.005311	736.373040	0.335317	-0.037765	1.866451
68.975516	747.378546	0.340321	-0.037949	1.875310
69.764727	758.424651	0.345326	-0.038100	1.884110
70.707825	769.444198	0.350331	-0.038280	1.892889
71.476270	780.514563	0.355335	-0.038427	1.901620
72.338365	791.520532	0.360340	-0.038591	1.910286
73.158841	802.563941	0.365345	-0.038748	1.918930
73.994471	813.609649	0.370350	-0.038907	1.927541
74.659594	824.677323	0.375354	-0.039035	1.936085
75.498255	835.651765	0.380359	-0.039195	1.944566
76.274604	846.731503	0.385364	-0.039344	1.953072
76.852341	857.756935	0.390369	-0.039455	1.961450
77.821965	868.750402	0.395373	-0.039639	1.969869
78.582354	879.808685	0.400378	-0.039785	1.978246
79.317051	890.872935	0.405383	-0.039925	1.986585
80.107644	901.865776	0.410387	-0.040076	1.994851
80.852292	912.904539	0.415392	-0.040219	2.003104
81.674450	923.944597	0.420397	-0.040376	2.011344
82.337922	935.011877	0.425402	-0.040503	2.019529
82.973151	946.008776	0.430406	-0.040625	2.027624
83.981885	957.013552	0.435411	-0.040817	2.035784
84.560540	968.082111	0.440416	-0.040928	2.043851
85.533516	979.086451	0.445421	-0.041114	2.051937
86.138741	990.144344	0.450425	-0.041230	2.059939
86.857153	1001.167083	0.455430	-0.041367	2.067912
87.762016	1012.170993	0.460435	-0.041540	2.075886
88.423856	1023.254449	0.465439	-0.041667	2.083827
89.163216	1034.271422	0.470444	-0.041808	2.091710
89.585826	1045.337378	0.475449	-0.041890	2.099521
90.573307	1056.273619	0.480454	-0.042078	2.107347
91.274454	1067.386828	0.485458	-0.042213	2.115198
92.161458	1078.341077	0.490463	-0.042382	2.122954
92.875761	1089.433938	0.495468	-0.042519	2.130737
93.538445	1100.438978	0.500472	-0.042646	2.138419
94.546797	1111.437652	0.505477	-0.042838	2.146148
95.053542	1122.527025	0.510482	-0.042935	2.153796
95.523322	1133.555337	0.515487	-0.043026	2.161366
96.256974	1144.563431	0.520491	-0.043167	2.168957
96.881197	1155.616962	0.525496	-0.043287	2.176526
97.721693	1166.589247	0.530501	-0.043447	2.184064
98.321860	1177.648931	0.535506	-0.043562	2.191579
98.722797	1188.698387	0.540510	-0.043640	2.199017
99.628015	1199.679694	0.545515	-0.043813	2.206498
100.094055	1210.763523	0.550520	-0.043903	2.213922
100.690934	1221.753302	0.555524	-0.044018	2.221289
101.255075	1232.788498	0.560529	-0.044126	2.228654
101.984589	1243.800445	0.565534	-0.044266	2.236015
102.316971	1254.889492	0.570539	-0.044331	2.243316
103.143764	1265.824645	0.575543	-0.044489	2.250600
103.726011	1276.929400	0.580548	-0.044601	2.257917
104.315924	1287.917945	0.585553	-0.044714	2.265137
104.780037	1298.965614	0.590558	-0.044804	2.272345
105.489157	1309.967136	0.595562	-0.044940	2.279553
105.795582	1321.005666	0.600567	-0.045000	2.286676
106.443290	1332.031417	0.605572	-0.045125	2.293841
107.068717	1343.038859	0.610576	-0.045245	2.300966
107.617180	1354.074964	0.615581	-0.045350	2.308072
108.153832	1365.116976	0.620586	-0.045454	2.315157
108.837835	1376.101552	0.625591	-0.045585	2.322214
109.444421	1387.143099	0.630595	-0.045701	2.329270
110.411668	1398.144547	0.635600	-0.045886	2.336353
111.031795	1409.188620	0.640605	-0.046005	2.343370
111.878708	1420.184215	0.645610	-0.046166	2.350382
112.368981	1431.265835	0.650614	-0.046261	2.357354
112.792967	1442.303554	0.655619	-0.046343	2.364264
113.428946	1453.273589	0.660624	-0.046465	2.371155
114.221492	1464.314449	0.665628	-0.046617	2.378101
114.713166	1475.338455	0.670633	-0.046712	2.384955
115.172131	1486.406225	0.675638	-0.046801	2.391810
115.451069	1497.411210	0.680643	-0.046856	2.398571
116.267193	1508.394162	0.685647	-0.047012	2.405406
116.538975	1519.482779	0.690652	-0.047065	2.412178
117.095386	1530.465371	0.695657	-0.047172	2.418923
117.527583	1541.486181	0.700661	-0.047256	2.425647
118.305617	1552.491865	0.705666	-0.047405	2.432412
118.789203	1563.538019	0.710671	-0.047498	2.439124
119.466213	1574.542429	0.715676	-0.047628	2.445831
119.992405	1585.591104	0.720680	-0.047730	2.452515
120.632992	1596.596293	0.725685	-0.047853	2.459178
121.075696	1607.633744	0.730690	-0.047938	2.465804
121.641489	1618.657480	0.735695	-0.048047	2.472427
122.069971	1629.696889	0.740699	-0.048130	2.479015
122.861893	1640.638550	0.745704	-0.048282	2.485598
123.265779	1651.758298	0.750709	-0.048360	2.492193
123.871213	1662.746702	0.755713	-0.048477	2.498732
124.217362	1673.765493	0.760718	-0.048544	2.505223
124.860485	1684.778416	0.765723	-0.048668	2.511750
125.386071	1695.834172	0.770728	-0.048769	2.518262
126.040622	1706.815999	0.775732	-0.048895	2.524738
126.544707	1717.833602	0.780737	-0.048992	2.531190
127.437488	1728.841704	0.785742	-0.049162	2.537693
128.066465	1739.897711	0.790747	-0.049283	2.544157
128.574777	1750.922819	0.795751	-0.049381	2.550564
129.067010	1761.957196	0.800756	-0.049476	2.556958
129.529523	1772.975684	0.805761	-0.049566	2.563321
130.100663	1783.966935	0.810765	-0.049675	2.569673
130.515400	1795.098430	0.815770	-0.049756	2.576059
130.609962	1806.066559	0.820775	-0.049776	2.582280
131.183222	1817.047423	0.825780	-0.049887	2.588579
131.792903	1828.048324	0.830784	-0.050004	2.594880
132.269743	1839.104561	0.835789	-0.050096	2.601174
132.666721	1850.120006	0.840794	-0.050173	2.607414
133.277172	1861.128038	0.845799	-0.050291	2.613674
133.829886	1872.154240	0.850803	-0.050397	2.619918
134.520876	1883.143451	0.855808	-0.050529	2.626151
135.245838	1894.177338	0.860813	-0.050668	2.632400
135.809156	1905.224637	0.865817	-0.050777	2.638613
136.227497	1916.245763	0.870822	-0.050858	2.644772
136.707021	1927.277388	0.875827	-0.050951	2.650932
137.111853	1938.290771	0.880832	-0.051029	2.657055
137.783673	1949.287609	0.885836	-0.051158	2.663201
138.240057	1960.321290	0.890841	-0.051246	2.669315
138.791712	1971.342123	0.895846	-0.051353	2.675425
139.237364	1982.371888	0.900850	-0.051439	2.681507
139.905114	1993.379535	0.905855	-0.051567	2.687602
140.166235	2004.430706	0.910860	-0.051619	2.693636
140.698365	2015.412848	0.915865	-0.051721	2.699666
140.927898	2026.465203	0.920869	-0.051767	2.705669
141.376779	2037.471016	0.925874	-0.051854	2.711670
141.761796	2048.507919	0.930879	-0.051929	2.717664
142.345395	2059.455374	0.935884	-0.052041	2.723630
142.828921	2070.508092	0.940888	-0.052135	2.729623
143.202941	2081.545108	0.945893	-0.052208	2.735575
143.711992	2092.522056	0.950898	-0.052306	2.741505
144.096916	2103.589936	0.955902	-0.052381	2.747450
144.719142	2114.560282	0.960907	-0.052500	2.753369
145.049586	2125.620825	0.965912	-0.052565	2.759275
145.427265	2136.623239	0.970917	-0.052639	2.765145
146.077381	2147.637480	0.975921	-0.052763	2.771054
146.583827	2158.657807	0.980926	-0.052861	2.776930
147.081785	2169.688067	0.985931	-0.052957	2.782796
147.495040	2180.701707	0.990936	-0.053038	2.788628
148.094650	2191.709704	0.995940	-0.053153	2.794475
148.575200	2202.752095	1.000945	-0.053246	2.800308
149.043014	2213.772786	1.005950	-0.053336	2.806116
149.527768	2224.801397	1.010954	-0.053430	2.811918
149.981732	2235.777241	1.015959	-0.053518	2.817676
150.603128	2246.805297	1.020964	-0.053637	2.823476
151.075945	2257.817299	1.025969	-0.053729	2.829232
151.467135	2268.884799	1.030973	-0.053805	2.834991
152.098221	2279.878745	1.035978	-0.053926	2.840739
152.515518	2290.902506	1.040983	-0.054007	2.846457
152.643004	2301.960636	1.045988	-0.054034	2.852135
152.832104	2312.939991	1.050992	-0.054072	2.857771
153.517340	2323.935267	1.055997	-0.054203	2.863481
153.816387	2334.989605	1.061002	-0.054262	2.869150
154.300724	2345.998835	1.066006	-0.054355	2.874814
154.565451	2357.036615	1.071011	-0.054408	2.880447
155.060771	2368.017029	1.076016	-0.054504	2.886075
155.464385	2379.086546	1.081021	-0.054582	2.891723
155.944457	2390.057385	1.086025	-0.054675	2.897322
156.608889	2401.058355	1.091030	-0.054802	2.902954
157.019171	2412.117916	1.096035	-0.054882	2.908564
157.507428	2423.131852	1.101039	-0.054976	2.914153
158.271294	2434.116696	1.106044	-0.055122	2.919759
158.514782	2445.172883	1.111049	-0.055171	2.925310
159.076793	2456.186785	1.116054	-0.055279	2.930878
159.217172	2467.227082	1.121058	-0.055308	2.936385
159.674918	2478.213382	1.126063	-0.055397	2.941902
160.009027	2489.254531	1.131068	-0.055462	2.947417
160.647074	2500.232908	1.136073	-0.055585	2.952937
160.836671	2511.308699	1.141077	-0.055623	2.958427
161.447980	2522.277788	1.146082	-0.055740	2.963917
161.756574	2533.326908	1.151087	-0.055801	2.969391
162.180641	2544.342809	1.156091	-0.055883	2.974855
162.523714	2555.348326	1.161096	-0.055950	2.980293
162.856864	2566.367728	1.166101	-0.056016	2.985726
163.269332	2577.406138	1.171106	-0.056096	2.991170
163.611070	2588.398446	1.176110	-0.056162	2.996571
163.974858	2599.427500	1.181115	-0.056233	3.001983
164.539094	2610.429608	1.186120	-0.056342	3.007402
164.907300	2621.459969	1.191125	-0.056414	3.012796
165.315899	2632.475137	1.196129	-0.056493	3.018178
165.725177	2643.488200	1.201134	-0.056573	3.023550
166.502018	2654.491252	1.206139	-0.056721	3.028961
167.619670	2665.464428	1.211143	-0.056934	3.034396
168.362065	2676.546385	1.216148	-0.057076	3.039819
168.799785	2687.577970	1.221153	-0.057161	3.045165
169.129837	2698.600705	1.226158	-0.057225	3.050483
169.361350	2709.610153	1.231162	-0.057271	3.055770
169.863796	2720.608249	1.236167	-0.057368	3.061081
170.216645	2731.632967	1.241172	-0.057437	3.066375
170.740473	2742.660629	1.246177	-0.057538	3.071684
171.126099	2753.669788	1.251181	-0.057614	3.076956
171.676182	2764.679940	1.256186	-0.057719	3.082243
172.082056	2775.711230	1.261191	-0.057798	3.087510
172.782422	2786.707918	1.266195	-0.057932	3.092793
173.037534	2797.762006	1.271200	-0.057983	3.098031
173.557253	2808.751727	1.276205	-0.058083	3.103268
173.714721	2819.824004	1.281210	-0.058116	3.108483
174.013404	2830.799428	1.286214	-0.058174	3.113665
174.354657	2841.825044	1.291219	-0.058241	3.118867
174.657010	2852.816597	1.296224	-0.058301	3.124039
175.059470	2863.874420	1.301228	-0.058379	3.129246
175.343138	2874.880475	1.306233	-0.058435	3.134405
175.806182	2885.891444	1.311238	-0.058524	3.139582
176.031915	2896.907638	1.316243	-0.058570	3.144721
176.748483	2907.899166	1.321247	-0.058707	3.149906
177.229893	2918.920102	1.326252	-0.058800	3.155064
177.764664	2929.969072	1.331257	-0.058903	3.160233
178.206388	2940.961394	1.336262	-0.058988	3.165356
178.638239	2951.989132	1.341266	-0.059072	3.170485
178.887409	2963.014830	1.346271	-0.059122	3.175581
179.378672	2974.035852	1.351276	-0.059217	3.180698
179.815770	2985.026686	1.356280	-0.059301	3.185786
180.112858	2996.088470	1.361285	-0.059360	3.190879
180.487148	3007.058196	1.366290	-0.059433	3.195933
180.787670	3018.117796	1.371295	-0.059492	3.201010
181.099665	3029.112244	1.376299	-0.059553	3.206050
181.496354	3040.150085	1.381304	-0.059630	3.211113
181.828046	3051.111476	1.386309	-0.059695	3.216125
182.251058	3062.177886	1.391314	-0.059777	3.221189
182.741030	3073.172327	1.396318	-0.059872	3.226221
183.081411	3084.208791	1.401323	-0.059939	3.231244
183.459109	3095.196559	1.406328	-0.060012	3.236242
184.002416	3106.220131	1.411332	-0.060117	3.241270
184.807485	3117.206445	1.416337	-0.060271	3.246307
185.606077	3128.255714	1.421342	-0.060423	3.251364
185.834551	3139.302695	1.426347	-0.060469	3.256338
186.269894	3150.284551	1.431351	-0.060553	3.261302
186.640958	3161.334857	1.436356	-0.060626	3.266281
186.848507	3172.340402	1.441361	-0.060667	3.271211
187.079382	3183.361024	1.446366	-0.060713	3.276143
187.283358	3194.394900	1.451370	-0.060754	3.281071
187.755214	3205.366496	1.456375	-0.060846	3.285997
188.306766	3216.386687	1.461380	-0.060952	3.290947
188.483058	3227.418300	1.466384	-0.060988	3.295848
188.855385	3238.437760	1.471389	-0.061060	3.300760
189.180619	3249.466813	1.476394	-0.061124	3.305664
189.532165	3260.473888	1.481399	-0.061193	3.310554
189.974833	3271.459722	1.486403	-0.061278	3.315438
190.314906	3282.512552	1.491408	-0.061345	3.320332
190.858991	3293.497329	1.496413	-0.061450	3.325214
191.234549	3304.571318	1.501417	-0.061523	3.330106
191.535488	3315.531427	1.506422	-0.061582	3.334933
191.916314	3326.572571	1.511427	-0.061656	3.339798
192.537941	3337.583260	1.516432	-0.061776	3.344671
192.905304	3348.621742	1.521436	-0.061847	3.349519
193.259840	3359.588848	1.526441	-0.061917	3.354327
193.592708	3370.663813	1.531446	-0.061982	3.359172
193.987090	3381.637616	1.536451	-0.062059	3.363973
194.314966	3392.693039	1.541455	-0.062123	3.368795
194.727722	3403.671462	1.546460	-0.062203	3.373587
195.108624	3414.694348	1.551465	-0.062277	3.378388
195.390527	3425.718106	1.556469	-0.062333	3.383170
195.759997	3436.755123	1.561474	-0.062405	3.387961
196.144322	3447.725427	1.566479	-0.062480	3.392719
196.291016	3458.787063	1.571484	-0.062510	3.397480
196.699660	3469.768237	1.576488	-0.062589	3.402232
197.239315	3480.800385	1.581493	-0.062693	3.407014
197.636513	3491.806854	1.586498	-0.062771	3.411762
197.919360	3502.864374	1.591503	-0.062826	3.416511
198.167791	3513.819433	1.596507	-0.062876	3.421206
198.649042	3524.862792	1.601512	-0.062969	3.425959
198.962663	3535.865988	1.606517	-0.063030	3.430669
199.504995	3546.898126	1.611521	-0.063135	3.435411
199.917140	3557.925841	1.616526	-0.063215	3.440130
200.110415	3568.951779	1.621531	-0.063254	3.444816
200.578847	3579.937960	1.626536	-0.063345	3.449510
201.086266	3590.949583	1.631540	-0.063443	3.454214
201.603642	3601.981383	1.636545	-0.063542	3.458920
202.009556	3613.002807	1.641550	-0.063621	3.463603
202.280757	3623.999818	1.646555	-0.063675	3.468253
202.613830	3635.038115	1.651559	-0.063740	3.472922
202.915588	3646.047190	1.656564	-0.063799	3.477569
203.478028	3657.031472	1.661569	-0.063908	3.482228
203.950339	3668.092217	1.666573	-0.063999	3.486903
204.152468	3679.087608	1.671578	-0.064040	3.491514
204.609117	3690.097437	1.676583	-0.064128	3.496153
205.081465	3701.110542	1.681588	-0.064219	3.500789
205.603682	3712.137927	1.686592	-0.064320	3.505431
205.976805	3723.184731	1.691597	-0.064393	3.510057
206.054439	3734.175783	1.696602	-0.064410	3.514621
206.499236	3745.183689	1.701606	-0.064496	3.519227
206.689776	3756.213976	1.706611	-0.064535	3.523808
207.199842	3767.249661	1.711616	-0.064633	3.528421
207.397654	3778.226163	1.716621	-0.064673	3.532968
207.756374	3789.254036	1.721625	-0.064743	3.537549
207.891606	3800.273914	1.726630	-0.064771	3.542096
208.281765	3811.295026	1.731635	-0.064847	3.546665
208.673182	3822.289244	1.736640	-0.064923	3.551217
209.111761	3833.320352	1.741644	-0.065008	3.555784
209.590942	3844.316212	1.746649	-0.065101	3.560335
209.826812	3855.373409	1.751654	-0.065148	3.564879
210.098402	3866.351922	1.756658	-0.065202	3.569388
210.606280	3877.371093	1.761663	-0.065300	3.573934
210.872882	3888.406248	1.766668	-0.065353	3.578454
211.322831	3899.410536	1.771673	-0.065440	3.582976
211.598689	3910.444745	1.776677	-0.065494	3.587486
211.836914	3921.450714	1.781682	-0.065542	3.591974
212.113907	3932.452643	1.786687	-0.065596	3.596459
212.580227	3943.462299	1.791692	-0.065687	3.600962
212.916998	3954.515118	1.796696	-0.065752	3.605463
213.367973	3965.491387	1.801701	-0.065840	3.609939
214.007116	3976.506301	1.806706	-0.065962	3.614445
214.399329	3987.547281	1.811710	-0.066039	3.618930
214.647212	3998.563490	1.816715	-0.066088	3.623384
215.165113	4009.571251	1.821720	-0.066188	3.627857
215.459045	4020.581977	1.826725	-0.066246	3.632303
215.834123	4031.605374	1.831729	-0.066319	3.636756
216.158490	4042.601281	1.836734	-0.066382	3.641188
216.717786	4053.643779	1.841739	-0.066490	3.645657
216.849565	4064.639486	1.846744	-0.066518	3.650058
217.119051	4075.675981	1.851748	-0.066571	3.654484
217.451659	4086.672672	1.856753	-0.066636	3.658895
217.676894	4097.751102	1.861758	-0.066681	3.663322
217.861758	4108.767918	1.866762	-0.066718	3.667715
218.075757	4119.791290	1.871767	-0.066761	3.672108
218.527169	4130.770877	1.876772	-0.066849	3.676503
218.673108	4141.812776	1.881777	-0.066879	3.680886
219.151404	4152.829717	1.886781	-0.066971	3.685288
219.503658	4163.832061	1.891786	-0.067040	3.689666
219.772259	4174.849691	1.896791	-0.067093	3.694036
220.212361	4185.869454	1.901795	-0.067179	3.698420
220.696389	4196.857138	1.906800	-0.067272	3.702789
221.246107	4207.907248	1.911805	-0.067378	3.707185
221.430770	4218.899685	1.916810	-0.067415	3.711516
221.864724	4229.928454	1.921814	-0.067500	3.715881
222.210768	4240.928593	1.926819	-0.067567	3.720221
222.682493	4251.979826	1.931824	-0.067658	3.724589
222.872870	4262.956831	1.936829	-0.067697	3.728893
223.527601	4273.960288	1.941833	-0.067823	3.733250
223.901976	4285.023500	1.946838	-0.067895	3.737597
224.179943	4296.035524	1.951843	-0.067950	3.741909
224.553193	4307.025631	1.956847	-0.068023	3.746217
224.729058	4318.065549	1.961852	-0.068059	3.750520
225.157328	4329.068275	1.966857	-0.068142	3.754828
