Wed Nov 23 17:31:11 2022

Number of Points = 2200
Depth (nm)	Load (µN)	Time (s)	Depth (V)	Load (V)
-1.181705	1.079597	0.000000	0.058249	0.882729
0.000000	7.011564	0.005005	0.058026	0.893350
1.378959	15.811472	0.010009	0.057765	0.908650
3.001624	26.240450	0.015014	0.057458	0.926446
4.245341	37.289883	0.020019	0.057222	0.944658
5.402528	48.504804	0.025024	0.057002	0.962728
6.036278	59.804865	0.030028	0.056880	0.980301
6.808065	71.013091	0.035033	0.056733	0.997503
7.383899	82.210157	0.040038	0.056622	1.014290
8.150718	93.360314	0.045043	0.056475	1.030838
8.528232	104.606501	0.050047	0.056402	1.047056
8.907210	115.787326	0.055052	0.056328	1.062936
9.294556	126.911316	0.060057	0.056252	1.078508
10.307744	137.890246	0.065061	0.056060	1.093974
11.753645	148.976018	0.070066	0.055786	1.109579
12.237898	160.265780	0.075071	0.055692	1.124769
13.669246	171.190232	0.080076	0.055421	1.139734
17.026824	181.927328	0.085080	0.054788	1.155172
17.717914	193.510371	0.090085	0.054655	1.170234
19.481858	204.464712	0.095090	0.054322	1.184811
21.577706	215.519921	0.100094	0.053926	1.199485
22.912820	226.812547	0.105099	0.053672	1.213929
23.587367	238.047777	0.110104	0.053543	1.227841
24.377703	249.147525	0.115109	0.053392	1.241487
25.157980	260.245241	0.120113	0.053243	1.254976
26.197278	271.296601	0.125118	0.053045	1.268379
27.067932	282.406838	0.130123	0.052879	1.281637
28.095468	293.486018	0.135128	0.052683	1.294788
28.965263	304.636008	0.140132	0.052517	1.307822
29.816849	315.715497	0.145137	0.052355	1.320640
30.381835	326.819317	0.150142	0.052246	1.333246
31.204815	337.865959	0.155146	0.052089	1.345774
32.045333	348.920431	0.160151	0.051929	1.358201
33.069192	359.969148	0.165156	0.051734	1.370580
33.646933	371.139225	0.170161	0.051623	1.382805
34.529464	382.153447	0.175165	0.051454	1.394874
35.326859	393.222808	0.180170	0.051302	1.406864
36.574142	404.229337	0.185175	0.051065	1.418857
37.359342	415.360141	0.190180	0.050915	1.430705
38.126614	426.462608	0.195184	0.050768	1.442418
38.783898	437.541143	0.200189	0.050642	1.453973
39.694277	448.551618	0.205194	0.050469	1.465459
40.659430	459.603268	0.210198	0.050285	1.476917
41.423290	470.710841	0.215203	0.050139	1.488269
42.298183	481.740530	0.220208	0.049972	1.499497
43.055626	492.844794	0.225213	0.049827	1.510673
43.441864	503.961510	0.230217	0.049752	1.521650
44.101793	514.965915	0.235222	0.049625	1.532533
44.885145	525.999879	0.240227	0.049475	1.543411
45.872000	537.016294	0.245232	0.049288	1.554264
46.462203	548.139646	0.250236	0.049174	1.565009
47.096749	559.191304	0.255241	0.049052	1.575627
47.837203	570.206539	0.260246	0.048911	1.586176
49.170941	581.182667	0.265250	0.048658	1.596814
50.289652	592.240405	0.270255	0.048445	1.607386
51.671576	603.285493	0.275260	0.048183	1.617962
52.384506	614.414153	0.280265	0.048046	1.628328
53.446137	625.444017	0.285269	0.047844	1.638652
54.124824	636.537080	0.290274	0.047714	1.648844
54.958683	647.555087	0.295279	0.047555	1.658956
55.676547	658.608337	0.300283	0.047418	1.669001
56.744754	669.639987	0.305288	0.047215	1.679076
57.462439	680.710922	0.310293	0.047077	1.689016
58.513499	691.713959	0.315298	0.046877	1.698941
59.236532	702.810690	0.320302	0.046739	1.708788
60.295492	713.815962	0.325307	0.046537	1.718602
60.976859	724.887403	0.330312	0.046407	1.728303
61.796144	735.936389	0.335317	0.046250	1.737971
62.680911	746.950681	0.340321	0.046082	1.747575
63.586556	758.002547	0.345326	0.045909	1.757165
64.243668	769.073533	0.350331	0.045783	1.766644
65.156192	780.113179	0.355335	0.045609	1.776122
65.883673	791.129086	0.360340	0.045470	1.785475
66.577877	802.204370	0.365345	0.045337	1.794818
67.298514	813.225413	0.370350	0.045199	1.804076
68.264343	824.237625	0.375354	0.045015	1.813349
68.920610	835.317769	0.380359	0.044889	1.822542
69.819414	846.333373	0.385364	0.044717	1.831705
70.326229	857.428777	0.390369	0.044620	1.840775
70.966537	868.427745	0.395373	0.044497	1.849761
71.600330	879.498156	0.400378	0.044375	1.858758
72.367842	890.498106	0.405383	0.044228	1.867693
73.243263	901.502202	0.410387	0.044061	1.876618
73.965104	912.595731	0.415392	0.043923	1.885529
74.448098	923.637658	0.420397	0.043830	1.894292
75.364708	934.615328	0.425402	0.043655	1.903081
75.631744	945.755140	0.430406	0.043602	1.911781
76.462354	956.713194	0.435411	0.043444	1.920452
77.051658	967.769703	0.440416	0.043330	1.929095
77.786665	978.795458	0.445421	0.043190	1.937714
78.493424	989.832978	0.450425	0.043054	1.946296
79.136620	1000.870066	0.455430	0.042931	1.954823
79.746830	1011.883515	0.460435	0.042814	1.963286
80.549420	1022.936606	0.465439	0.042660	1.971793
80.948909	1033.999471	0.470444	0.042583	1.980166
81.732373	1044.987799	0.475449	0.042433	1.988546
82.295370	1056.062177	0.480454	0.042325	1.996899
83.024946	1067.066742	0.485458	0.042185	2.005207
83.673807	1078.125189	0.490463	0.042060	2.013500
84.209503	1089.162455	0.495468	0.041957	2.021714
84.793031	1100.163415	0.500472	0.041845	2.029881
85.425762	1111.211285	0.505477	0.041724	2.038061
86.055447	1122.242506	0.510482	0.041603	2.046195
86.812742	1133.242570	0.515487	0.041458	2.054306
87.333931	1144.319677	0.520491	0.041357	2.062382
88.263043	1155.299428	0.525496	0.041180	2.070456
88.919289	1166.356553	0.530501	0.041054	2.078487
89.677246	1177.366958	0.535506	0.040909	2.086479
90.277526	1188.458951	0.540510	0.040794	2.094459
90.691645	1199.448140	0.545515	0.040714	2.102292
91.334913	1210.470157	0.550520	0.040590	2.110173
92.053263	1221.509937	0.555524	0.040453	2.118055
92.509727	1232.561770	0.560529	0.040364	2.125854
93.246027	1243.553594	0.565534	0.040223	2.133649
93.562314	1254.624872	0.570539	0.040161	2.141371
94.485489	1265.591601	0.575543	0.039985	2.149135
94.920855	1276.693314	0.580548	0.039901	2.156850
95.232341	1287.718993	0.585553	0.039840	2.164457
95.938752	1298.704286	0.590558	0.039704	2.172100
96.617436	1309.730642	0.595562	0.039574	2.179738
97.233887	1320.772383	0.600567	0.039456	2.187345
97.936021	1331.788304	0.605572	0.039321	2.194928
98.388413	1342.832611	0.610576	0.039234	2.202447
98.974769	1353.847872	0.615581	0.039121	2.209950
99.386891	1364.921392	0.620586	0.039041	2.217428
99.853338	1375.904884	0.625591	0.038951	2.224833
100.634944	1386.931199	0.630595	0.038801	2.232312
101.188267	1397.949180	0.635600	0.038695	2.239709
101.784195	1408.989294	0.640605	0.038580	2.247106
102.238864	1420.042211	0.645610	0.038492	2.254455
102.826472	1431.043895	0.650614	0.038379	2.261776
103.536942	1442.046842	0.655619	0.038243	2.269101
104.014391	1453.114691	0.660624	0.038151	2.276394
104.581490	1464.094934	0.665628	0.038042	2.283625
105.370474	1475.135415	0.670633	0.037891	2.290921
105.777343	1486.181003	0.675638	0.037812	2.298114
106.358800	1497.194642	0.680643	0.037700	2.305301
106.936430	1508.222394	0.685647	0.037589	2.312474
107.421942	1519.257378	0.690652	0.037495	2.319610
107.856927	1530.284157	0.695657	0.037411	2.326708
108.436446	1541.308394	0.700661	0.037299	2.333813
108.743809	1552.335737	0.705666	0.037239	2.340841
109.248656	1563.346104	0.710671	0.037141	2.347879
109.953710	1574.375509	0.715676	0.037006	2.354948
110.450156	1585.408856	0.720680	0.036911	2.361956
110.971212	1596.409994	0.725685	0.036810	2.368928
111.398109	1607.467963	0.730690	0.036727	2.375895
111.926955	1618.456083	0.735695	0.036625	2.382819
112.422580	1629.510964	0.740699	0.036530	2.389757
113.130736	1640.494440	0.745704	0.036394	2.396675
113.538427	1651.567297	0.750709	0.036315	2.403566
114.332290	1662.525549	0.755713	0.036163	2.410445
114.850428	1673.610603	0.760718	0.036063	2.417326
115.452006	1684.604977	0.765723	0.035947	2.424149
116.054440	1695.621194	0.770728	0.035832	2.430966
116.528987	1706.671242	0.775732	0.035740	2.437759
116.973669	1717.707288	0.780737	0.035654	2.444518
117.393150	1728.721356	0.785742	0.035572	2.451241
118.125225	1739.703265	0.790747	0.035432	2.457987
118.795854	1750.736270	0.795751	0.035304	2.464733
119.299221	1761.774615	0.800756	0.035206	2.471430
119.852234	1772.800975	0.805761	0.035100	2.478113
120.385808	1783.831135	0.810765	0.034997	2.484775
120.855182	1794.871751	0.815770	0.034906	2.491413
121.408921	1805.859279	0.820775	0.034800	2.498018
121.820909	1816.897629	0.825780	0.034720	2.504609
122.309158	1827.916965	0.830784	0.034625	2.511185
122.611582	1838.953511	0.835789	0.034566	2.517719
123.117703	1849.974456	0.840794	0.034468	2.524265
123.699040	1860.970374	0.845799	0.034356	2.530794
124.100625	1872.021782	0.850803	0.034278	2.537304
124.802893	1882.994372	0.855808	0.034144	2.543808
125.303081	1894.068922	0.860813	0.034047	2.550316
125.753391	1905.075506	0.865817	0.033960	2.556760
126.114229	1916.123091	0.870822	0.033889	2.563193
126.693786	1927.099338	0.875827	0.033778	2.569610
127.357580	1938.189548	0.880832	0.033651	2.576092
128.083736	1949.135525	0.885836	0.033512	2.582487
128.801204	1960.144484	0.890841	0.033374	2.588899
129.540614	1971.182926	0.895846	0.033233	2.595316
129.862248	1982.250562	0.900850	0.033170	2.601658
130.437929	1993.228855	0.905855	0.033059	2.607980
130.775754	2004.290868	0.910860	0.032993	2.614290
131.382758	2015.271164	0.915865	0.032876	2.620588
131.829488	2026.292156	0.920869	0.032790	2.626865
132.188682	2037.374219	0.925874	0.032720	2.633144
132.750484	2048.310166	0.930879	0.032612	2.639364
133.327522	2059.323798	0.935884	0.032501	2.645614
133.945721	2070.390426	0.940888	0.032382	2.651887
134.485564	2081.379072	0.945893	0.032278	2.658087
134.882066	2092.419960	0.950898	0.032201	2.664276
135.305819	2103.437694	0.955902	0.032118	2.670443
135.716514	2114.460112	0.960907	0.032039	2.676596
136.162582	2125.480178	0.965912	0.031952	2.682740
136.613336	2136.505258	0.970917	0.031865	2.688873
136.926383	2147.529550	0.975921	0.031803	2.694967
137.261114	2158.532325	0.980926	0.031738	2.701040
137.718221	2169.560004	0.985931	0.031649	2.707133
138.181924	2180.583475	0.990936	0.031560	2.713212
138.722857	2191.583143	0.995940	0.031455	2.719277
139.040502	2202.639243	1.000945	0.031393	2.725321
139.547905	2213.633923	1.005950	0.031295	2.731350
140.191046	2224.643859	1.010954	0.031172	2.737398
140.622270	2235.673589	1.015959	0.031088	2.743406
141.422827	2246.651598	1.020964	0.030935	2.749436
141.889026	2257.714177	1.025969	0.030845	2.755441
142.551079	2268.724280	1.030973	0.030718	2.761438
142.788720	2279.798977	1.035978	0.030671	2.767386
143.171733	2290.778314	1.040983	0.030596	2.773294
143.769271	2301.761525	1.045988	0.030481	2.779227
144.328945	2312.832678	1.050992	0.030373	2.785188
144.691389	2323.835589	1.055997	0.030303	2.791067
145.138956	2334.872316	1.061002	0.030216	2.796965
145.309095	2345.887610	1.066006	0.030181	2.802794
145.890863	2356.891853	1.071011	0.030069	2.808673
146.320353	2367.915390	1.076016	0.029986	2.814524
146.647468	2378.947037	1.081021	0.029922	2.820350
147.109648	2389.962359	1.086025	0.029833	2.826178
147.498913	2400.991223	1.091030	0.029757	2.831989
147.810209	2411.983260	1.096035	0.029696	2.837756
148.319273	2423.019289	1.101039	0.029597	2.843567
148.673467	2434.039540	1.106044	0.029528	2.849332
149.267381	2445.039887	1.111049	0.029414	2.855113
149.734579	2456.074511	1.116054	0.029324	2.860880
150.243519	2467.076596	1.121058	0.029225	2.866625
150.996189	2478.084027	1.126063	0.029082	2.872400
151.343268	2489.137017	1.131068	0.029014	2.878122
151.861538	2500.131664	1.136073	0.028914	2.883830
152.165075	2511.201864	1.141077	0.028854	2.889531
152.568251	2522.189508	1.146082	0.028776	2.895195
153.066837	2533.216562	1.151087	0.028679	2.900882
153.331932	2544.230931	1.156091	0.028627	2.906516
153.691683	2555.246015	1.161096	0.028557	2.912153
154.027702	2566.257996	1.166101	0.028491	2.917774
154.421728	2577.284402	1.171106	0.028414	2.923401
154.867739	2588.298029	1.176110	0.028328	2.929018
155.163201	2599.340720	1.181115	0.028270	2.934616
155.740916	2610.303859	1.186120	0.028158	2.940206
156.373521	2621.358539	1.191125	0.028037	2.945840
156.823066	2632.373923	1.196129	0.027950	2.951415
157.069094	2643.406762	1.201134	0.027901	2.956957
157.281324	2654.421284	1.206139	0.027859	2.962475
157.753080	2665.428762	1.211143	0.027767	2.968018
158.134573	2676.447563	1.216148	0.027693	2.973543
158.634389	2687.468499	1.221153	0.027596	2.979076
159.069060	2698.456876	1.226158	0.027512	2.984573
159.506538	2709.524057	1.231162	0.027427	2.990099
159.981499	2720.517139	1.236167	0.027335	2.995584
160.372847	2731.573296	1.241172	0.027259	3.001077
160.527361	2742.549600	1.246177	0.027228	3.006486
161.075649	2753.580378	1.251181	0.027122	3.011970
161.371682	2764.584417	1.256186	0.027064	3.017393
161.786183	2775.619080	1.261191	0.026983	3.022839
162.005792	2786.665924	1.266195	0.026939	3.028253
162.248449	2797.662893	1.271200	0.026891	3.033636
162.885707	2808.638642	1.276205	0.026769	3.039056
163.436272	2819.678068	1.281210	0.026663	3.044485
163.956263	2830.708196	1.286214	0.026562	3.049895
164.341000	2841.730306	1.291219	0.026487	3.055272
164.456479	2852.766428	1.296224	0.026463	3.060608
165.032202	2863.741796	1.301228	0.026352	3.065971
165.586104	2874.753928	1.306233	0.026246	3.071338
165.970467	2885.794048	1.311238	0.026171	3.076686
166.595398	2896.793339	1.316243	0.026051	3.082039
166.782549	2907.850314	1.321247	0.026013	3.087348
167.146161	2918.844654	1.326252	0.025942	3.092643
167.606164	2929.864425	1.331257	0.025853	3.097954
167.963436	2940.886058	1.336262	0.025783	3.103243
168.231853	2951.914990	1.341266	0.025730	3.108514
168.570167	2962.921809	1.346271	0.025664	3.113775
168.875874	2973.952617	1.351276	0.025604	3.119033
169.090425	2984.951838	1.356280	0.025561	3.124255
169.668098	2995.986588	1.361285	0.025450	3.129536
170.174622	3006.957287	1.366290	0.025352	3.134768
170.697010	3018.023349	1.371295	0.025251	3.140037
170.868504	3029.035819	1.376299	0.025216	3.145224
171.367029	3040.050009	1.381304	0.025120	3.150449
171.551698	3051.048094	1.386309	0.025083	3.155614
171.999600	3062.086327	1.391314	0.024996	3.160825
172.216683	3073.097500	1.396318	0.024952	3.165984
172.654632	3084.113962	1.401323	0.024867	3.171166
172.960089	3095.127073	1.406328	0.024807	3.176321
173.393760	3106.154652	1.411332	0.024723	3.181491
173.617737	3117.171337	1.416337	0.024679	3.186619
174.020810	3128.197753	1.421342	0.024600	3.191767
174.565989	3139.171880	1.426347	0.024495	3.196902
174.992023	3150.242990	1.431351	0.024413	3.202058
175.348276	3161.229666	1.436356	0.024343	3.207157
175.755161	3172.253527	1.441361	0.024264	3.212271
176.046221	3183.282622	1.446366	0.024207	3.217364
176.430846	3194.271650	1.451370	0.024132	3.222443
176.764380	3205.315093	1.456375	0.024066	3.227533
177.169649	3216.312406	1.461380	0.023988	3.232602
177.291668	3227.356425	1.466384	0.023962	3.237648
177.778357	3238.346877	1.471389	0.023868	3.242709
178.317611	3249.357733	1.476394	0.023764	3.247778
178.936535	3260.377867	1.481399	0.023645	3.252854
179.092677	3271.401311	1.486403	0.023613	3.257863
179.464584	3282.414407	1.491408	0.023541	3.262887
179.870688	3293.458582	1.496413	0.023462	3.267922
180.280209	3304.445006	1.501417	0.023382	3.272924
180.636214	3315.481363	1.506422	0.023313	3.277934
181.003577	3326.489967	1.511427	0.023241	3.282924
181.299474	3337.518027	1.516432	0.023183	3.287907
181.692839	3348.533160	1.521436	0.023106	3.292889
181.890791	3359.542199	1.526441	0.023066	3.297835
182.235056	3370.550722	1.531446	0.022999	3.302793
182.633270	3381.574775	1.536451	0.022921	3.307757
182.974304	3392.608198	1.541455	0.022855	3.312710
183.064982	3403.614374	1.546460	0.022835	3.317611
183.563435	3414.633712	1.551465	0.022739	3.322563
183.894127	3425.634393	1.556469	0.022674	3.327478
184.195362	3436.665674	1.561474	0.022615	3.332396
184.476256	3447.676164	1.566479	0.022559	3.337294
185.006698	3458.676396	1.571484	0.022457	3.342212
185.227621	3469.712771	1.576488	0.022413	3.347100
185.769927	3480.705974	1.581493	0.022308	3.352001
186.183012	3491.740174	1.586498	0.022228	3.356897
186.833350	3502.743247	1.591503	0.022103	3.361802
187.073859	3513.782110	1.596507	0.022056	3.366665
187.351677	3524.808807	1.601512	0.022001	3.371519
187.532884	3535.809403	1.606517	0.021964	3.376344
188.181317	3546.788612	1.611521	0.021840	3.381209
188.759753	3557.825436	1.616526	0.021728	3.386084
189.387964	3568.861191	1.621531	0.021608	3.390957
189.424430	3579.882564	1.626536	0.021598	3.395745
189.910598	3590.893251	1.631540	0.021504	3.400576
190.064734	3601.929086	1.636545	0.021472	3.405371
190.519419	3612.901085	1.641550	0.021384	3.410167
190.899182	3623.930130	1.646555	0.021310	3.414973
191.377603	3634.950500	1.651559	0.021218	3.419779
191.685333	3645.984962	1.656564	0.021157	3.424565
191.991821	3656.995515	1.661569	0.021097	3.429333
192.317837	3668.003162	1.666573	0.021033	3.434096
192.757660	3679.018163	1.671578	0.020948	3.438868
193.074412	3690.042109	1.676583	0.020886	3.443623
193.525565	3701.050240	1.681588	0.020799	3.448381
193.638765	3712.079612	1.686592	0.020775	3.453101
194.022295	3723.081027	1.691597	0.020700	3.457835
194.398845	3734.091733	1.696602	0.020627	3.462565
194.912220	3745.111743	1.701606	0.020527	3.467308
195.453985	3756.121111	1.706611	0.020423	3.472044
195.850880	3767.150499	1.711616	0.020346	3.476765
196.201357	3778.160033	1.716621	0.020277	3.481465
196.399042	3789.193467	1.721625	0.020238	3.486152
196.754123	3800.200985	1.726630	0.020168	3.490839
197.147562	3811.199042	1.731635	0.020092	3.495521
197.525900	3822.234900	1.736640	0.020018	3.500210
197.677918	3833.270510	1.741644	0.019987	3.504867
198.057605	3844.258754	1.746649	0.019913	3.509523
198.212726	3855.306830	1.751654	0.019881	3.514173
198.566146	3866.302205	1.756658	0.019812	3.518818
199.160045	3877.314193	1.761663	0.019698	3.523490
199.410094	3888.343617	1.766668	0.019648	3.528124
199.545604	3899.369461	1.771673	0.019620	3.532738
199.763847	3910.348385	1.776677	0.019576	3.537336
200.027894	3921.378943	1.781682	0.019524	3.541954
200.413812	3932.388121	1.786687	0.019449	3.546570
200.803005	3943.398315	1.791692	0.019373	3.551182
201.110693	3954.435412	1.796696	0.019313	3.555789
201.428959	3965.435178	1.801701	0.019250	3.560377
201.691497	3976.466726	1.806706	0.019198	3.564965
202.069830	3987.446704	1.811710	0.019124	3.569538
202.320360	3998.500527	1.816715	0.019075	3.574122
202.595864	4009.512729	1.821720	0.019020	3.578686
202.736447	4020.535213	1.826725	0.018991	3.583233
202.891611	4031.580850	1.831729	0.018959	3.587786
203.107097	4042.530789	1.836734	0.018916	3.592300
203.540531	4053.575155	1.841739	0.018832	3.596871
203.899150	4064.551640	1.846744	0.018762	3.601400
204.346289	4075.611908	1.851748	0.018675	3.605967
204.371404	4086.635406	1.856753	0.018668	3.610467
204.743663	4097.662911	1.861758	0.018595	3.615002
205.116256	4108.677644	1.866762	0.018523	3.619525
205.650772	4119.704142	1.871767	0.018420	3.624064
205.838483	4130.725550	1.876772	0.018382	3.628559
206.142203	4141.770056	1.881777	0.018322	3.633070
206.319327	4152.781910	1.886781	0.018286	3.637548
206.549468	4163.777227	1.891786	0.018240	3.642019
206.829425	4174.793960	1.896791	0.018185	3.646499
207.348947	4185.779736	1.901795	0.018085	3.650987
207.442861	4196.826006	1.906800	0.018064	3.655448
207.965493	4207.829410	1.911805	0.017964	3.659932
207.944682	4218.854771	1.916810	0.017965	3.664361
208.415132	4229.862166	1.921814	0.017874	3.668830
208.631287	4240.891847	1.926819	0.017830	3.673276
209.136072	4251.881099	1.931824	0.017733	3.677730
209.427836	4262.928310	1.936829	0.017676	3.682179
209.773139	4273.938359	1.941833	0.017608	3.686614
209.919322	4284.933476	1.946838	0.017578	3.691017
210.406651	4295.950594	1.951843	0.017484	3.695458
210.743697	4306.982213	1.956847	0.017418	3.699885
211.048572	4317.994096	1.961852	0.017358	3.704295
211.180381	4329.007068	1.966857	0.017330	3.708682
211.456887	4340.023078	1.971862	0.017276	3.713080
211.831155	4351.049826	1.976866	0.017203	3.717487
212.362121	4362.046898	1.981871	0.017100	3.721893
212.562329	4373.079309	1.986876	0.017060	3.726273
212.936233	4384.066386	1.991881	0.016987	3.730649
213.089030	4395.112871	1.996885	0.016956	3.735020
213.337440	4406.099307	2.001890	0.016907	3.739372
213.629318	4417.133584	2.006895	0.016849	3.743742
