Wed Nov 23 19:06:18 2022

Number of Points = 2200
Depth (nm)	Load (µN)	Time (s)	Depth (V)	Load (V)
-2.980421	0.213553	0.000000	0.011185	1.025377
0.000000	7.118946	0.005005	0.010624	1.036800
1.717909	16.777535	0.010009	0.010300	1.051300
2.998400	27.639289	0.015014	0.010057	1.067039
3.683265	38.846725	0.020019	0.009925	1.082718
4.389236	49.979069	0.025024	0.009790	1.098084
4.690086	61.203842	0.030028	0.009731	1.113161
5.123136	72.327089	0.035033	0.009647	1.127968
5.561508	83.446529	0.040038	0.009562	1.142580
5.999502	94.561531	0.045043	0.009477	1.157002
6.217901	105.713033	0.050047	0.009433	1.171190
6.448373	116.846148	0.055052	0.009387	1.185191
6.554639	127.963687	0.060057	0.009365	1.198954
6.760900	139.039011	0.065061	0.009323	1.212553
7.183475	150.136450	0.070066	0.009241	1.226123
7.426138	161.231928	0.075071	0.009193	1.239464
7.536331	172.365010	0.080076	0.009169	1.252649
7.611106	183.461509	0.085080	0.009153	1.265640
7.810994	194.519603	0.090085	0.009112	1.278507
8.011951	205.615516	0.095090	0.009072	1.291289
8.254768	216.734871	0.100094	0.009024	1.303990
14.565210	226.043443	0.105099	0.007837	1.317012
23.079536	237.527417	0.110104	0.006237	1.333189
23.903975	249.631013	0.115109	0.006079	1.346794
25.072183	260.795698	0.120113	0.005857	1.359383
26.179128	271.909291	0.125118	0.005647	1.371777
27.141640	283.034434	0.130123	0.005463	1.384016
28.067544	294.112503	0.135128	0.005287	1.396084
28.899340	305.186669	0.140132	0.005128	1.408008
29.598763	316.306400	0.145137	0.004994	1.419829
30.644198	327.265224	0.150142	0.004795	1.431515
31.979832	338.316299	0.155146	0.004542	1.443307
32.518353	349.518494	0.160151	0.004438	1.454864
33.422814	360.531869	0.165156	0.004265	1.466273
34.087044	371.613978	0.170161	0.004138	1.477575
35.020569	382.622605	0.175165	0.003960	1.488815
35.746703	393.745792	0.180170	0.003821	1.500009
37.233944	404.641408	0.185175	0.003539	1.511164
38.396682	415.780330	0.190180	0.003319	1.522359
39.140643	426.891373	0.195184	0.003176	1.533301
40.091507	437.952926	0.200189	0.002995	1.544189
40.854079	449.004545	0.205194	0.002849	1.554926
41.619796	460.077406	0.210198	0.002703	1.565611
42.490731	471.109402	0.215203	0.002537	1.576220
43.218896	482.198036	0.220208	0.002397	1.586762
43.923136	493.227883	0.225213	0.002262	1.597173
44.967065	504.234496	0.230217	0.002064	1.607605
45.953915	515.319301	0.235222	0.001876	1.618022
46.757767	526.361518	0.240227	0.001722	1.628275
47.548168	537.438764	0.245232	0.001571	1.638490
48.092175	548.507626	0.250236	0.001466	1.648556
48.690230	559.568950	0.255241	0.001351	1.658571
49.240141	570.591341	0.260246	0.001246	1.668476
50.057610	581.613062	0.265250	0.001089	1.678405
50.789815	592.686484	0.270255	0.000949	1.688294
51.292666	603.744621	0.275260	0.000852	1.698041
51.836236	614.770389	0.280265	0.000747	1.707717
52.539311	625.821349	0.285269	0.000613	1.717408
53.314097	636.830568	0.290274	0.000465	1.727030
54.532275	647.835381	0.295279	0.000233	1.736728
55.032019	658.962487	0.300283	0.000137	1.746260
55.625814	669.988920	0.305288	0.000023	1.755684
56.380592	681.002795	0.310293	-0.000122	1.765095
57.136247	692.055785	0.315298	-0.000266	1.774487
57.788104	703.124434	0.320302	-0.000391	1.783813
58.313460	714.161793	0.325307	-0.000493	1.793027
58.968128	725.188908	0.330312	-0.000618	1.802223
59.525546	736.252449	0.335317	-0.000725	1.811374
60.237390	747.245889	0.340321	-0.000862	1.820466
61.187586	758.262183	0.345326	-0.001043	1.829598
62.083830	769.331433	0.350331	-0.001214	1.838711
62.646929	780.362454	0.355335	-0.001322	1.847655
63.095559	791.487875	0.360340	-0.001409	1.856600
63.533028	802.468463	0.365345	-0.001494	1.865384
64.288154	813.484552	0.370350	-0.001638	1.874241
64.896692	824.536314	0.375354	-0.001755	1.883045
65.775203	835.530948	0.380359	-0.001923	1.891835
66.344884	846.627743	0.385364	-0.002032	1.900581
66.982805	857.623743	0.390369	-0.002155	1.909227
67.648184	868.677402	0.395373	-0.002282	1.917885
68.190024	879.710871	0.400378	-0.002387	1.926456
69.116143	890.717649	0.405383	-0.002563	1.935070
69.644677	901.801620	0.410387	-0.002665	1.943599
69.989608	912.850177	0.415392	-0.002733	1.952017
70.424251	923.866564	0.420397	-0.002817	1.960397
70.962725	934.875489	0.425402	-0.002921	1.968763
71.822357	945.874085	0.430406	-0.003085	1.977167
72.421925	956.958860	0.435411	-0.003200	1.985533
72.950539	968.002051	0.440416	-0.003302	1.993815
73.402270	979.018481	0.445421	-0.003389	2.002024
73.977232	990.055776	0.450425	-0.003500	2.010245
74.862770	1001.049843	0.455430	-0.003669	2.018478
75.502714	1012.090489	0.460435	-0.003792	2.026651
76.106856	1023.154458	0.465439	-0.003908	2.034798
76.492431	1034.204042	0.470444	-0.003983	2.042848
76.951354	1045.230122	0.475449	-0.004072	2.050868
77.386962	1056.266668	0.480454	-0.004156	2.058858
77.957171	1067.269045	0.485458	-0.004266	2.066825
78.434724	1078.331669	0.490463	-0.004358	2.074782
79.092724	1089.317825	0.495468	-0.004484	2.082697
79.735788	1100.368160	0.500472	-0.004608	2.090624
80.223769	1111.406313	0.505477	-0.004702	2.098476
80.859620	1122.409941	0.510482	-0.004824	2.106308
81.254569	1133.492546	0.515487	-0.004901	2.114110
81.637562	1144.499500	0.520491	-0.004976	2.121827
82.272214	1155.512254	0.525496	-0.005097	2.129579
82.749902	1166.551195	0.530501	-0.005190	2.137285
83.439543	1177.553263	0.535506	-0.005322	2.144986
83.955598	1188.598430	0.540510	-0.005421	2.152649
84.452185	1199.636045	0.545515	-0.005517	2.160275
85.060301	1210.660386	0.550520	-0.005634	2.167890
85.470427	1221.698285	0.555524	-0.005714	2.175442
85.852145	1232.726373	0.560529	-0.005788	2.182956
86.324370	1243.755612	0.565534	-0.005880	2.190464
86.954239	1254.752844	0.570539	-0.006001	2.197961
87.431956	1265.805056	0.575543	-0.006093	2.205434
87.730368	1276.858051	0.580548	-0.006152	2.212843
88.099057	1287.854365	0.585553	-0.006224	2.220204
88.692022	1298.869322	0.590558	-0.006338	2.227604
89.265643	1309.914168	0.595562	-0.006448	2.234994
89.768522	1320.906515	0.600567	-0.006545	2.242309
90.520574	1331.934422	0.605572	-0.006689	2.249678
91.194075	1343.001600	0.610576	-0.006818	2.257032
91.350385	1354.038461	0.615581	-0.006850	2.264229
91.852249	1365.046642	0.620586	-0.006947	2.271459
92.286906	1376.052596	0.625591	-0.007031	2.278651
92.693407	1387.111236	0.630595	-0.007110	2.285848
92.982284	1398.150234	0.635600	-0.007167	2.292984
93.210671	1409.164738	0.640605	-0.007213	2.300069
93.649739	1420.150070	0.645610	-0.007298	2.307159
94.167922	1431.206139	0.650614	-0.007398	2.314288
94.444615	1442.223308	0.655619	-0.007452	2.321320
94.787841	1453.250265	0.660624	-0.007520	2.328350
95.308035	1464.288917	0.665628	-0.007620	2.335404
95.582670	1475.287183	0.670633	-0.007674	2.342360
96.313308	1486.285014	0.675638	-0.007814	2.349389
96.785159	1497.351710	0.680643	-0.007905	2.356386
97.133438	1508.373728	0.685647	-0.007973	2.363310
97.668378	1519.386369	0.690652	-0.008076	2.370245
97.873398	1530.439095	0.695657	-0.008118	2.377118
98.422814	1541.435145	0.700661	-0.008223	2.384006
98.790759	1552.473545	0.705666	-0.008295	2.390863
98.938093	1563.515314	0.710671	-0.008326	2.397658
99.381069	1574.506472	0.715676	-0.008411	2.404462
99.595605	1585.566057	0.720680	-0.008454	2.411242
100.127270	1596.536485	0.725685	-0.008557	2.418013
100.494056	1607.595936	0.730690	-0.008628	2.424786
100.938036	1618.597392	0.735695	-0.008715	2.431520
101.390980	1629.627345	0.740699	-0.008802	2.438254
101.730366	1640.661381	0.745704	-0.008869	2.444950
101.960252	1651.705114	0.750709	-0.008915	2.451611
102.099303	1662.728867	0.755713	-0.008943	2.458225
102.642733	1673.695627	0.760718	-0.009048	2.464866
103.024856	1684.741440	0.765723	-0.009122	2.471504
103.318036	1695.803783	0.770728	-0.009180	2.478117
103.569930	1706.794530	0.775732	-0.009230	2.484662
103.867295	1717.828209	0.780737	-0.009289	2.491224
104.060406	1728.866029	0.785742	-0.009328	2.497751
104.705901	1739.822603	0.790747	-0.009452	2.504299
105.223054	1750.865667	0.795751	-0.009551	2.510857
105.302810	1761.948068	0.800756	-0.009569	2.517337
105.504318	1772.943968	0.805761	-0.009610	2.523773
105.895814	1783.946603	0.810765	-0.009686	2.530233
106.184099	1794.976192	0.815770	-0.009743	2.536672
106.513462	1806.003627	0.820775	-0.009807	2.543101
106.915138	1817.012490	0.825780	-0.009885	2.549517
107.164158	1828.058352	0.830784	-0.009935	2.555909
107.507318	1839.044618	0.835789	-0.010002	2.562268
107.800953	1850.104407	0.840794	-0.010060	2.568645
108.030751	1861.163021	0.845799	-0.010105	2.574993
108.360660	1872.151138	0.850803	-0.010170	2.581304
109.324816	1883.002889	0.855808	-0.010354	2.587638
110.823684	1894.100357	0.860813	-0.010638	2.594191
111.445136	1905.155147	0.865817	-0.010757	2.600545
111.846279	1916.218471	0.870822	-0.010835	2.606848
112.203992	1927.242907	0.875827	-0.010905	2.613107
112.199439	1938.287937	0.880832	-0.010907	2.619297
112.489153	1949.253660	0.885836	-0.010964	2.625480
112.869672	1960.300980	0.890841	-0.011038	2.631711
113.037446	1971.342853	0.895846	-0.011072	2.637886
113.488197	1982.318162	0.900850	-0.011159	2.644059
113.801691	1993.360868	0.905855	-0.011221	2.650232
114.245837	2004.355112	0.910860	-0.011307	2.656386
114.842322	2015.377786	0.915865	-0.011422	2.662567
115.208849	2026.409511	0.920869	-0.011493	2.668700
115.506787	2037.432465	0.925874	-0.011552	2.674801
115.866886	2048.464144	0.930879	-0.011622	2.680904
116.024164	2059.478652	0.935884	-0.011654	2.686948
116.400665	2070.482673	0.940888	-0.011728	2.693011
116.563803	2081.493775	0.945893	-0.011761	2.699028
117.042551	2092.507783	0.950898	-0.011854	2.705086
117.381406	2103.537543	0.955902	-0.011920	2.711116
117.750935	2114.560068	0.960907	-0.011992	2.717133
117.935959	2125.589058	0.965912	-0.012030	2.723109
118.317084	2136.595941	0.970917	-0.012104	2.729094
118.537859	2147.616134	0.975921	-0.012148	2.735045
118.914661	2158.662987	0.980926	-0.012221	2.741023
119.407504	2169.609709	0.985931	-0.012317	2.746955
123.947188	2180.072766	0.990936	-0.013171	2.753291
127.243319	2191.638984	0.995940	-0.013792	2.759991
127.790755	2202.700054	1.000945	-0.013898	2.765950
128.051429	2213.760159	1.005950	-0.013949	2.771848
128.353044	2224.744991	1.010954	-0.014009	2.777700
128.602916	2235.775440	1.015959	-0.014058	2.783556
128.966240	2246.805954	1.020964	-0.014129	2.789418
129.437463	2257.789614	1.025969	-0.014220	2.795260
129.929018	2268.835858	1.030973	-0.014315	2.801127
130.253064	2279.858682	1.035978	-0.014379	2.806941
130.895116	2290.856341	1.040983	-0.014502	2.812782
131.185838	2301.875574	1.045988	-0.014559	2.818565
131.462771	2312.927486	1.050992	-0.014614	2.824350
131.832287	2323.935148	1.055997	-0.014686	2.830116
132.175184	2334.950990	1.061002	-0.014753	2.835870
132.903311	2345.925025	1.066006	-0.014893	2.841652
133.449697	2357.003896	1.071011	-0.014998	2.847447
133.526303	2368.015120	1.076016	-0.015015	2.853121
133.758439	2379.030260	1.081021	-0.015061	2.858810
133.993162	2390.050351	1.086025	-0.015108	2.864491
134.399972	2401.062276	1.091030	-0.015187	2.870183
134.992993	2412.060138	1.096035	-0.015301	2.875886
135.393387	2423.107163	1.101039	-0.015379	2.881573
135.809732	2434.113776	1.106044	-0.015460	2.887230
136.099702	2445.160874	1.111049	-0.015517	2.892876
136.783140	2456.120510	1.116054	-0.015648	2.898529
137.178867	2467.182956	1.121058	-0.015725	2.904177
137.563101	2478.192191	1.126063	-0.015800	2.909786
137.903405	2489.232812	1.131068	-0.015866	2.915394
138.029985	2500.258244	1.136073	-0.015893	2.920949
138.501720	2511.243243	1.141077	-0.015984	2.926527
138.626705	2522.295389	1.146082	-0.016010	2.932075
139.031847	2533.270850	1.151087	-0.016089	2.937617
139.188867	2544.318480	1.156091	-0.016121	2.943146
139.507450	2555.334232	1.161096	-0.016184	2.948673
139.787815	2566.346114	1.166101	-0.016239	2.954183
140.264912	2577.350766	1.171106	-0.016331	2.959708
140.867605	2588.357445	1.176110	-0.016447	2.965242
141.417214	2599.411569	1.181115	-0.016553	2.970782
141.479060	2610.447331	1.186120	-0.016567	2.976229
141.824246	2621.422894	1.191125	-0.016635	2.981679
142.414750	2632.436563	1.196129	-0.016748	2.987173
142.851814	2643.458772	1.201134	-0.016833	2.992639
143.296844	2654.476870	1.206139	-0.016919	2.998094
144.007832	2665.461758	1.211143	-0.017055	3.003562
144.996928	2676.508902	1.216148	-0.017244	3.009091
145.222460	2687.554337	1.221153	-0.017289	3.014497
145.665973	2698.535792	1.226158	-0.017375	3.019894
146.696303	2709.541367	1.231162	-0.017571	3.025378
147.229407	2720.612979	1.236167	-0.017673	3.030812
147.549125	2731.615550	1.241172	-0.017736	3.036172
147.881394	2742.632223	1.246177	-0.017801	3.041531
148.628589	2753.612329	1.251181	-0.017944	3.046922
149.177013	2764.668104	1.256186	-0.018050	3.052312
149.408171	2775.715423	1.261191	-0.018096	3.057642
149.589487	2786.688105	1.266195	-0.018133	3.062921
150.145460	2797.731290	1.271200	-0.018240	3.068277
150.380569	2808.735145	1.276205	-0.018287	3.073559
150.957799	2819.755699	1.281210	-0.018398	3.078889
151.510787	2830.751242	1.286214	-0.018504	3.084194
152.179642	2841.798491	1.291219	-0.018632	3.089530
152.654013	2852.785288	1.296224	-0.018724	3.094801
153.116373	2863.840473	1.301228	-0.018814	3.100094
153.555525	2874.816673	1.306233	-0.018899	3.105337
154.363820	2885.856089	1.311238	-0.019053	3.110652
154.760249	2896.874004	1.316243	-0.019130	3.115891
155.314340	2907.885729	1.321247	-0.019237	3.121140
155.644289	2918.922582	1.326252	-0.019302	3.126360
156.116582	2929.927705	1.331257	-0.019393	3.131577
156.356393	2940.963144	1.336262	-0.019441	3.136767
156.912235	2951.953169	1.341266	-0.019548	3.141970
157.481064	2962.971614	1.346271	-0.019657	3.147180
157.901483	2974.018794	1.351276	-0.019739	3.152374
158.192268	2985.014882	1.356280	-0.019796	3.157518
158.566092	2996.052802	1.361285	-0.019869	3.162685
158.905442	3007.062510	1.366290	-0.019935	3.167825
159.461868	3018.052824	1.371295	-0.020042	3.172977
160.053776	3029.101380	1.376299	-0.020156	3.178152
160.470632	3040.094679	1.381304	-0.020237	3.183269
160.729876	3051.164871	1.386309	-0.020289	3.188393
161.201245	3062.121371	1.391314	-0.020380	3.193484
161.500328	3073.168371	1.396318	-0.020439	3.198586
162.119085	3084.176795	1.401323	-0.020557	3.203704
162.320214	3095.201352	1.406328	-0.020598	3.208766
162.677279	3106.222366	1.411332	-0.020668	3.213839
162.877074	3117.237337	1.416337	-0.020708	3.218880
163.328041	3128.234329	1.421342	-0.020795	3.223939
163.600048	3139.271112	1.426347	-0.020849	3.228983
164.145460	3150.265213	1.431351	-0.020954	3.234037
164.327699	3161.311254	1.436356	-0.020991	3.239058
164.587836	3172.339756	1.441361	-0.021042	3.244074
165.081615	3183.326040	1.446366	-0.021138	3.249093
165.762082	3194.315047	1.451370	-0.021268	3.254130
166.213015	3205.357758	1.456375	-0.021356	3.259153
166.696677	3216.385618	1.461380	-0.021449	3.264166
166.683691	3227.430957	1.466384	-0.021449	3.269115
167.086108	3238.412574	1.471389	-0.021528	3.274082
167.557926	3249.422901	1.476394	-0.021619	3.279063
168.143071	3260.420188	1.481399	-0.021731	3.284044
168.678480	3271.478406	1.486403	-0.021835	3.289039
168.905190	3282.502869	1.491408	-0.021880	3.293971
169.393143	3293.471126	1.496413	-0.021974	3.298905
169.775897	3304.508751	1.501417	-0.022049	3.303848
170.093560	3315.552152	1.506422	-0.022111	3.308778
170.738627	3326.520834	1.511427	-0.022235	3.313709
170.912226	3337.583561	1.516432	-0.022270	3.318615
171.383125	3348.580748	1.521436	-0.022361	3.323522
171.616164	3359.626475	1.526441	-0.022408	3.328413
171.894246	3370.600605	1.531446	-0.022462	3.333271
172.367764	3381.622674	1.536451	-0.022554	3.338168
172.950564	3392.643398	1.541455	-0.022666	3.343069
173.070922	3403.694830	1.546460	-0.022691	3.347920
173.469550	3414.671910	1.551465	-0.022769	3.352766
173.760618	3425.704824	1.556469	-0.022826	3.357616
174.230894	3436.711510	1.561474	-0.022917	3.362469
174.764275	3447.730491	1.566479	-0.023020	3.367328
175.262014	3458.750017	1.571484	-0.023116	3.372176
175.318628	3469.780544	1.576488	-0.023130	3.376968
175.765409	3480.772422	1.581493	-0.023216	3.381784
176.102509	3491.793010	1.586498	-0.023282	3.386591
176.621586	3502.806250	1.591503	-0.023382	3.391411
176.852941	3513.847125	1.596507	-0.023428	3.396201
177.348988	3524.838745	1.601512	-0.023524	3.400995
177.787542	3535.858730	1.606517	-0.023609	3.405787
178.244179	3546.877992	1.611521	-0.023698	3.410575
178.693374	3557.872997	1.616526	-0.023785	3.415344
179.144639	3568.914597	1.621531	-0.023872	3.420126
179.558141	3579.937999	1.626536	-0.023952	3.424890
179.887231	3590.950785	1.631540	-0.024017	3.429632
180.335451	3601.954955	1.636545	-0.024104	3.434378
180.677266	3612.997590	1.641550	-0.024171	3.439122
181.069779	3623.978624	1.646555	-0.024247	3.443838
181.651233	3635.024474	1.651559	-0.024359	3.448598
181.784369	3646.027012	1.656564	-0.024386	3.453280
182.082956	3657.055118	1.661569	-0.024445	3.457985
182.474021	3668.059803	1.666573	-0.024521	3.462686
182.989992	3679.072862	1.671578	-0.024621	3.467397
183.388592	3690.090647	1.676583	-0.024698	3.472091
183.817844	3701.107898	1.681588	-0.024782	3.476781
184.054511	3712.112229	1.686592	-0.024829	3.481438
184.345340	3723.159086	1.691597	-0.024886	3.486112
184.574219	3734.155321	1.696602	-0.024932	3.490752
184.958367	3745.180676	1.701606	-0.025007	3.495415
185.270884	3756.183909	1.706611	-0.025068	3.500055
185.601075	3767.209181	1.711616	-0.025133	3.504699
186.015297	3778.208550	1.716621	-0.025213	3.509336
186.349718	3789.259545	1.721625	-0.025279	3.513980
186.571935	3800.280885	1.726630	-0.025323	3.518592
187.179050	3811.246280	1.731635	-0.025440	3.523218
187.458745	3822.307874	1.736640	-0.025495	3.527841
187.854728	3833.309796	1.741644	-0.025572	3.532446
188.089740	3844.307352	1.746649	-0.025619	3.537026
188.618783	3855.323801	1.751654	-0.025721	3.541640
189.209148	3866.324938	1.756658	-0.025834	3.546248
189.713155	3877.381640	1.761663	-0.025931	3.550864
190.079549	3888.365857	1.766668	-0.026003	3.555428
190.616289	3899.380976	1.771673	-0.026106	3.560018
190.686599	3910.425894	1.776677	-0.026122	3.564563
191.176740	3921.449926	1.781682	-0.026217	3.569139
191.384815	3932.430777	1.786687	-0.026259	3.573661
191.918828	3943.463605	1.791692	-0.026362	3.578234
192.288472	3954.477822	1.796696	-0.026434	3.582776
192.811773	3965.481346	1.801701	-0.026535	3.587324
193.185326	3976.497920	1.806706	-0.026608	3.591855
193.525445	3987.535364	1.811710	-0.026674	3.596386
193.914524	3998.518668	1.816715	-0.026750	3.600894
194.563179	4009.556228	1.821720	-0.026874	3.605446
195.045323	4020.562485	1.826725	-0.026967	3.609961
195.395645	4031.590986	1.831729	-0.027036	3.614466
195.827567	4042.584108	1.836734	-0.027120	3.618960
196.200049	4053.643381	1.841739	-0.027192	3.623468
196.508453	4064.640832	1.846744	-0.027253	3.627939
196.837731	4075.648931	1.851748	-0.027317	3.632410
197.264317	4086.656822	1.856753	-0.027400	3.636886
197.558520	4097.707383	1.861758	-0.027458	3.641360
198.043636	4108.737025	1.866762	-0.027552	3.645840
198.409207	4119.754511	1.871767	-0.027623	3.650297
198.702840	4130.784439	1.876772	-0.027681	3.654746
199.359935	4141.749729	1.881777	-0.027807	3.659202
199.610823	4152.823101	1.886781	-0.027857	3.663653
200.144159	4163.827485	1.891786	-0.027960	3.668100
200.505587	4174.841354	1.896791	-0.028030	3.672528
201.178272	4185.843107	1.901795	-0.028159	3.676977
201.472256	4196.853277	1.906800	-0.028217	3.681386
201.912526	4207.903213	1.911805	-0.028302	3.685820
202.103009	4218.898108	1.916810	-0.028341	3.690200
202.643776	4229.915118	1.921814	-0.028445	3.694621
202.997938	4240.929629	1.926819	-0.028514	3.699016
203.455718	4251.948795	1.931824	-0.028603	3.703418
203.582592	4262.988270	1.936829	-0.028629	3.707788
203.870230	4273.970661	1.941833	-0.028686	3.712148
204.182107	4284.995629	1.946838	-0.028747	3.716522
204.430369	4296.000293	1.951843	-0.028797	3.720876
204.740849	4307.039347	1.956847	-0.028858	3.725244
205.298673	4318.024570	1.961852	-0.028965	3.729612
205.497214	4329.060056	1.966857	-0.029005	3.733957
205.985716	4340.045021	1.971862	-0.029099	3.738307
206.258130	4351.108417	1.976866	-0.029153	3.742661
