Wed Nov 23 18:09:14 2022

Number of Points = 2200
Depth (nm)	Load (µN)	Time (s)	Depth (V)	Load (V)
-3.184163	1.659858	0.000000	0.003102	1.049994
0.000000	7.612939	0.005005	0.002503	1.059922
3.186517	16.772640	0.010009	0.001903	1.074153
6.604898	27.421347	0.015014	0.001259	1.090318
9.518153	38.565164	0.020019	0.000710	1.106655
12.495134	49.698514	0.025024	0.000148	1.122769
14.930614	60.960353	0.030028	-0.000312	1.138561
17.037894	72.178175	0.035033	-0.000710	1.153926
18.961275	83.371795	0.040038	-0.001073	1.168972
20.534043	94.583403	0.045043	-0.001371	1.183688
21.759222	105.772093	0.050047	-0.001604	1.198038
23.264321	116.849074	0.055052	-0.001889	1.212206
24.235102	128.056308	0.060057	-0.002074	1.226131
25.311724	139.160067	0.065061	-0.002279	1.239822
26.173953	150.289110	0.070066	-0.002443	1.253301
27.140458	161.382582	0.075071	-0.002627	1.266639
28.238678	172.426649	0.080076	-0.002836	1.279835
29.152220	183.571454	0.085080	-0.003010	1.292934
29.726332	194.773050	0.090085	-0.003121	1.305826
30.565471	205.784786	0.095090	-0.003281	1.318488
31.344681	216.838840	0.100094	-0.003430	1.331051
32.200835	227.914261	0.105099	-0.003593	1.343550
32.764505	239.050113	0.110104	-0.003702	1.355884
33.303227	250.131814	0.115109	-0.003806	1.368038
34.063983	261.165876	0.120113	-0.003951	1.380120
34.673169	272.274050	0.125118	-0.004068	1.392117
35.304039	283.315856	0.130123	-0.004189	1.403950
35.929856	294.409480	0.135128	-0.004310	1.415736
36.564502	305.463897	0.140132	-0.004431	1.427386
37.104318	316.551289	0.145137	-0.004535	1.438941
37.584887	327.623459	0.150142	-0.004628	1.450366
37.992227	338.728543	0.155146	-0.004708	1.461708
38.486782	349.744406	0.160151	-0.004803	1.472905
38.884573	360.831250	0.165156	-0.004880	1.484054
39.209000	371.902336	0.170161	-0.004944	1.495077
39.651940	382.948620	0.175165	-0.005030	1.506037
40.141251	393.995817	0.180170	-0.005124	1.516934
40.607266	405.064325	0.185175	-0.005215	1.527766
40.828311	416.148859	0.190180	-0.005259	1.538453
41.206921	427.182232	0.195184	-0.005333	1.549070
41.581937	438.223431	0.200189	-0.005406	1.559622
42.046483	449.279966	0.205194	-0.005496	1.570147
42.432960	460.328350	0.210198	-0.005571	1.580568
46.478627	470.213588	0.215203	-0.006333	1.591053
59.609245	480.760630	0.220208	-0.008799	1.605038
60.223634	493.333999	0.225213	-0.008917	1.616687
60.645744	504.532188	0.230217	-0.008999	1.626952
61.522893	515.524333	0.235222	-0.009167	1.637112
62.614262	526.500336	0.240227	-0.009374	1.647262
63.689073	537.590501	0.245232	-0.009579	1.657446
64.741057	548.600201	0.250236	-0.009779	1.667488
65.793425	559.680578	0.255241	-0.009979	1.677532
66.751489	570.713267	0.260246	-0.010161	1.687446
67.837531	581.803444	0.265250	-0.010368	1.697390
68.831630	592.807220	0.270255	-0.010557	1.707173
69.590376	603.911791	0.275260	-0.010702	1.716915
70.388689	614.930810	0.280265	-0.010855	1.726540
71.379620	625.958437	0.285269	-0.011043	1.736177
72.535675	636.960526	0.290274	-0.011263	1.745787
73.290124	648.083319	0.295279	-0.011407	1.755327
74.159176	659.096577	0.300283	-0.011573	1.764758
75.040387	670.145941	0.305288	-0.011741	1.774171
75.830181	681.203131	0.310293	-0.011892	1.783514
76.792939	692.198118	0.315298	-0.012076	1.792807
77.666913	703.244967	0.320302	-0.012242	1.802069
78.620137	714.308002	0.325307	-0.012424	1.811318
79.305405	725.363327	0.330312	-0.012555	1.820438
80.268094	736.361731	0.335317	-0.012739	1.829544
81.112297	747.430903	0.340321	-0.012900	1.838629
82.025335	758.455883	0.345326	-0.013074	1.847652
82.893029	769.503738	0.350331	-0.013239	1.856636
83.702226	780.543743	0.355335	-0.013394	1.865555
84.480025	791.569587	0.360340	-0.013543	1.874411
85.397008	802.584468	0.365345	-0.013717	1.883255
86.210742	813.668617	0.370350	-0.013873	1.892082
87.088078	824.689148	0.375354	-0.014040	1.900836
87.816784	835.722398	0.380359	-0.014180	1.909520
88.744748	846.729564	0.385364	-0.014357	1.918197
89.397915	857.820341	0.390369	-0.014482	1.926825
90.303979	868.800446	0.395373	-0.014655	1.935398
91.464055	879.826283	0.400378	-0.014875	1.944033
92.183688	890.898636	0.405383	-0.015013	1.952550
92.998762	901.928382	0.410387	-0.015168	1.961022
93.534296	912.985411	0.415392	-0.015272	1.969406
94.294416	924.006886	0.420397	-0.015417	1.977785
95.096812	935.029556	0.425402	-0.015570	1.986140
95.800797	946.070506	0.430406	-0.015705	1.994449
96.404807	957.113607	0.435411	-0.015821	2.002699
97.067835	968.143577	0.440416	-0.015948	2.010920
97.972671	979.148778	0.445421	-0.016121	2.019150
98.736212	990.193099	0.450425	-0.016267	2.027339
99.408678	1001.232051	0.455430	-0.016396	2.035469
100.228721	1012.238691	0.460435	-0.016552	2.043579
100.904281	1023.307404	0.465439	-0.016682	2.051665
101.893506	1034.296014	0.470444	-0.016870	2.059739
102.440704	1045.384585	0.475449	-0.016976	2.067745
103.231539	1056.386871	0.480454	-0.017127	2.075717
104.208981	1067.385498	0.485458	-0.017313	2.083701
105.008009	1078.463210	0.490463	-0.017466	2.091667
105.657097	1089.492189	0.495468	-0.017590	2.099533
106.290634	1100.510692	0.500472	-0.017712	2.107358
106.883933	1111.568372	0.505477	-0.017826	2.115171
107.404512	1122.581730	0.510482	-0.017926	2.122908
108.189027	1133.599948	0.515487	-0.018076	2.130681
108.682338	1144.650244	0.520491	-0.018171	2.138381
109.370999	1155.675506	0.525496	-0.018303	2.146080
109.862073	1166.706687	0.530501	-0.018398	2.153710
110.829473	1177.671231	0.535506	-0.018582	2.161377
111.301784	1188.785683	0.540510	-0.018674	2.169005
111.979847	1199.779909	0.545515	-0.018804	2.176572
112.637102	1210.796204	0.550520	-0.018930	2.184122
113.137877	1221.844339	0.555524	-0.019027	2.191633
113.818634	1232.864976	0.560529	-0.019157	2.199139
114.481347	1243.867768	0.565534	-0.019284	2.206604
115.108852	1254.926029	0.570539	-0.019405	2.214072
115.840699	1265.913547	0.575543	-0.019545	2.221491
116.442550	1276.987260	0.580548	-0.019660	2.228913
116.998903	1288.003145	0.585553	-0.019767	2.236263
117.575287	1299.039952	0.590558	-0.019878	2.243606
118.093167	1310.049312	0.595562	-0.019978	2.250895
118.688486	1321.103013	0.600567	-0.020093	2.258205
119.078372	1332.124883	0.605572	-0.020168	2.265426
119.619949	1343.128497	0.610576	-0.020273	2.272646
120.062046	1354.187628	0.615581	-0.020359	2.279856
120.746035	1365.158662	0.620586	-0.020490	2.287039
121.280134	1376.224342	0.625591	-0.020593	2.294228
121.841799	1387.214885	0.630595	-0.020701	2.301352
122.515461	1398.243984	0.635600	-0.020830	2.308502
123.007592	1409.296923	0.640605	-0.020925	2.315607
123.261588	1420.349600	0.645610	-0.020975	2.322639
124.007957	1431.314971	0.650614	-0.021118	2.329698
124.532000	1442.372603	0.655619	-0.021219	2.336748
125.218495	1453.365171	0.660624	-0.021351	2.343768
125.818144	1464.403012	0.665628	-0.021466	2.350778
126.317073	1475.446250	0.670633	-0.021562	2.357750
126.619342	1486.482349	0.675638	-0.021622	2.364656
127.224161	1497.473531	0.680643	-0.021738	2.371575
127.800495	1508.498798	0.685647	-0.021849	2.378490
128.351995	1519.528369	0.690652	-0.021955	2.385382
128.796784	1530.571528	0.695657	-0.022041	2.392241
129.359454	1541.578613	0.700661	-0.022149	2.399081
129.955845	1552.583556	0.705666	-0.022264	2.405908
130.513895	1563.644075	0.710671	-0.022372	2.412741
131.053289	1574.647746	0.715676	-0.022476	2.419516
131.556795	1585.660192	0.720680	-0.022573	2.426271
132.103901	1596.700183	0.725685	-0.022678	2.433031
132.520847	1607.723802	0.730690	-0.022759	2.439738
133.206639	1618.702443	0.735695	-0.022890	2.446451
133.785859	1629.796013	0.740699	-0.023002	2.453194
134.155979	1640.783625	0.745704	-0.023074	2.459814
134.561745	1651.828160	0.750709	-0.023153	2.466457
135.058250	1662.836846	0.755713	-0.023249	2.473079
135.577963	1673.861075	0.760718	-0.023349	2.479696
136.011567	1684.879380	0.765723	-0.023433	2.486276
136.515459	1695.924595	0.770728	-0.023530	2.492867
137.020980	1706.907303	0.775732	-0.023628	2.499404
137.508929	1717.957003	0.780737	-0.023722	2.505960
137.824718	1728.982326	0.785742	-0.023784	2.512452
138.588381	1739.972917	0.790747	-0.023930	2.518991
139.019877	1751.023390	0.795751	-0.024014	2.525485
139.540000	1762.051857	0.800756	-0.024114	2.531967
140.012823	1773.058829	0.805761	-0.024206	2.538410
140.445652	1784.074245	0.810765	-0.024290	2.544835
140.802969	1795.120975	0.815770	-0.024360	2.551247
141.213211	1806.142126	0.820775	-0.024439	2.557638
141.564247	1817.151423	0.825780	-0.024508	2.563995
141.907896	1828.193382	0.830784	-0.024575	2.570354
142.046140	1839.294290	0.835789	-0.024604	2.576693
142.741567	1850.191742	0.840794	-0.024737	2.583002
143.168314	1861.225368	0.845799	-0.024820	2.589324
143.827380	1872.233397	0.850803	-0.024946	2.595659
144.290322	1883.281529	0.855808	-0.025036	2.601964
144.692847	1894.310225	0.860813	-0.025114	2.608233
145.049864	1905.327851	0.865817	-0.025184	2.614472
145.488766	1916.330755	0.870822	-0.025269	2.620702
145.945221	1927.350075	0.875827	-0.025357	2.626930
146.455176	1938.410279	0.880832	-0.025456	2.633175
146.804182	1949.382045	0.885836	-0.025524	2.639328
147.367036	1960.436541	0.890841	-0.025632	2.645549
147.711233	1971.447342	0.895846	-0.025699	2.651694
148.062628	1982.490362	0.900850	-0.025768	2.657843
148.905201	1993.425674	0.905855	-0.025929	2.664004
149.307221	2004.511187	0.910860	-0.026007	2.670157
149.594028	2015.551970	0.915865	-0.026064	2.676251
149.943347	2026.572187	0.920869	-0.026132	2.682330
150.338511	2037.554040	0.925874	-0.026209	2.688383
150.931389	2048.561913	0.930879	-0.026323	2.694470
151.195773	2059.602948	0.935884	-0.026375	2.700504
151.728696	2070.594714	0.940888	-0.026478	2.706545
152.310151	2081.619581	0.945893	-0.026590	2.712598
152.602741	2092.651735	0.950898	-0.026647	2.718592
152.994927	2103.663915	0.955902	-0.026724	2.724579
153.461743	2114.702419	0.960907	-0.026814	2.730580
153.874410	2125.698143	0.965912	-0.026894	2.736535
154.179817	2136.750244	0.970917	-0.026954	2.742489
154.616752	2147.726885	0.975921	-0.027039	2.748412
155.146883	2158.765571	0.980926	-0.027141	2.754371
155.558528	2169.778148	0.985931	-0.027221	2.760283
156.093906	2180.790933	0.990936	-0.027324	2.766203
156.285277	2191.871540	0.995940	-0.027363	2.772089
156.770595	2202.817240	1.000945	-0.027457	2.777940
157.366767	2213.839978	1.005950	-0.027571	2.783837
157.920292	2224.881662	1.010954	-0.027678	2.789725
158.416809	2235.880989	1.015959	-0.027774	2.795568
158.900584	2246.952144	1.020964	-0.027867	2.801435
159.309578	2257.934349	1.025969	-0.027947	2.807230
159.709491	2268.961781	1.030973	-0.028024	2.813036
159.981173	2279.978857	1.035978	-0.028078	2.818804
160.497976	2291.011620	1.040983	-0.028178	2.824607
160.952860	2302.009554	1.045988	-0.028266	2.830370
161.354808	2313.051062	1.050992	-0.028344	2.836136
161.688755	2324.066788	1.055997	-0.028409	2.841865
162.107515	2335.075938	1.061002	-0.028491	2.847593
162.396098	2346.100402	1.066006	-0.028548	2.853297
162.966891	2357.098780	1.071011	-0.028657	2.859020
163.382158	2368.143905	1.076016	-0.028738	2.864731
163.721692	2379.171758	1.081021	-0.028805	2.870410
164.038197	2390.155888	1.086025	-0.028867	2.876052
164.392717	2401.204419	1.091030	-0.028936	2.881721
165.045666	2412.179310	1.096035	-0.029061	2.887388
165.375030	2423.270109	1.101039	-0.029126	2.893052
165.797721	2434.215271	1.106044	-0.029208	2.898646
166.139241	2445.284998	1.111049	-0.029275	2.904279
166.516223	2456.293744	1.116054	-0.029348	2.909877
167.099903	2467.277844	1.121058	-0.029460	2.915482
167.344526	2478.341017	1.126063	-0.029509	2.921065
168.003735	2489.329326	1.131068	-0.029635	2.926662
168.436367	2500.335799	1.136073	-0.029719	2.932223
168.932240	2511.360744	1.141077	-0.029815	2.937793
169.378792	2522.398296	1.146082	-0.029902	2.943350
169.826841	2533.413969	1.151087	-0.029988	2.948886
170.101982	2544.430135	1.156091	-0.030043	2.954386
170.456688	2555.475267	1.161096	-0.030112	2.959902
170.710692	2566.463014	1.166101	-0.030162	2.965365
171.406872	2577.489181	1.171106	-0.030296	2.970901
171.555579	2588.521653	1.176110	-0.030326	2.976350
172.120118	2599.511394	1.181115	-0.030435	2.981828
172.269047	2610.553560	1.186120	-0.030466	2.987261
172.664872	2621.556321	1.191125	-0.030543	2.992701
172.774290	2632.594702	1.196129	-0.030566	2.998107
173.157976	2643.596316	1.201134	-0.030641	3.003525
173.425720	2654.632498	1.206139	-0.030694	3.008933
173.937342	2665.621442	1.211143	-0.030792	3.014344
174.181156	2676.657490	1.216148	-0.030841	3.019728
174.628351	2687.660342	1.221153	-0.030927	3.025117
174.898612	2698.700676	1.226158	-0.030981	3.030488
175.577723	2709.678852	1.231162	-0.031111	3.035879
176.006881	2720.727279	1.236167	-0.031194	3.041258
176.381670	2731.752777	1.241172	-0.031267	3.046608
176.810244	2742.761840	1.246177	-0.031351	3.051949
177.053951	2753.779793	1.251181	-0.031399	3.057259
177.460438	2764.770697	1.256186	-0.031478	3.062569
177.852117	2775.832030	1.261191	-0.031554	3.067901
178.148026	2786.821406	1.266195	-0.031612	3.073176
178.623146	2797.851748	1.271200	-0.031704	3.078487
178.799332	2808.865164	1.276205	-0.031740	3.083739
179.262736	2819.897576	1.281210	-0.031830	3.089031
179.674936	2830.873386	1.286214	-0.031910	3.094279
180.213425	2841.912355	1.291219	-0.032014	3.099566
180.387827	2852.948326	1.296224	-0.032049	3.104792
180.922370	2863.963249	1.301228	-0.032152	3.110049
181.200954	2874.961068	1.306233	-0.032207	3.115254
181.752881	2885.992382	1.311238	-0.032313	3.120503
182.200285	2896.984842	1.316243	-0.032400	3.125711
182.750678	2908.026019	1.321247	-0.032506	3.130947
183.164497	2919.025911	1.326252	-0.032586	3.136136
183.636724	2930.051482	1.331257	-0.032678	3.141337
183.939577	2941.068855	1.336262	-0.032737	3.146501
184.363960	2952.100710	1.341266	-0.032820	3.151681
184.556586	2963.116470	1.346271	-0.032859	3.156813
185.031219	2974.121992	1.351276	-0.032950	3.161970
185.231279	2985.158486	1.356280	-0.032991	3.167095
185.629371	2996.156684	1.361285	-0.033068	3.172222
185.891090	3007.178891	1.366290	-0.033120	3.177332
186.333947	3018.199028	1.371295	-0.033206	3.182458
186.580019	3029.218367	1.376299	-0.033255	3.187549
186.994302	3040.230587	1.381304	-0.033335	3.192650
187.236163	3051.249423	1.386309	-0.033383	3.197724
187.840591	3062.252047	1.391314	-0.033499	3.202830
188.250094	3073.281350	1.396318	-0.033579	3.207914
188.672178	3084.302293	1.401323	-0.033661	3.212988
189.097060	3095.301111	1.406328	-0.033743	3.218044
189.497665	3106.326741	1.411332	-0.033821	3.223101
189.886302	3117.348733	1.416337	-0.033897	3.228147
190.200098	3128.367125	1.421342	-0.033958	3.233173
190.532670	3139.380982	1.426347	-0.034024	3.238192
190.939411	3150.395786	1.431351	-0.034103	3.243213
191.203472	3161.435771	1.436356	-0.034155	3.248220
191.624562	3172.411854	1.441361	-0.034237	3.253210
191.767877	3183.463298	1.446366	-0.034266	3.258190
192.256895	3194.461341	1.451370	-0.034361	3.263183
192.570276	3205.478825	1.456375	-0.034422	3.268154
193.102868	3216.484988	1.461380	-0.034525	3.273141
193.524349	3227.519906	1.466384	-0.034607	3.278119
193.916888	3238.530492	1.471389	-0.034683	3.283074
194.210602	3249.558187	1.476394	-0.034741	3.288017
194.628105	3260.573854	1.481399	-0.034822	3.292963
195.076844	3271.569438	1.486403	-0.034909	3.297897
195.747111	3282.570483	1.491408	-0.035037	3.302853
195.988474	3293.641957	1.496413	-0.035085	3.307779
196.288675	3304.629282	1.501417	-0.035145	3.312667
196.628205	3315.640419	1.506422	-0.035211	3.317564
197.078751	3326.675066	1.511427	-0.035298	3.322478
197.168362	3337.711282	1.516432	-0.035318	3.327340
197.685621	3348.674244	1.521436	-0.035418	3.332216
197.987563	3359.721668	1.526441	-0.035477	3.337095
198.336905	3370.724365	1.531446	-0.035545	3.341953
198.744566	3381.751301	1.536451	-0.035624	3.346822
199.074344	3392.754317	1.541455	-0.035689	3.351664
199.665617	3403.776793	1.546460	-0.035803	3.356539
200.116849	3414.794160	1.551465	-0.035890	3.361387
200.503522	3425.836638	1.556469	-0.035965	3.366232
200.950678	3436.810757	1.561474	-0.036052	3.371047
201.283231	3447.848951	1.566479	-0.036117	3.375869
201.793566	3458.847758	1.571484	-0.036216	3.380688
202.083654	3469.894632	1.576488	-0.036273	3.385495
202.440928	3480.895280	1.581493	-0.036343	3.390283
202.576137	3491.932392	1.586498	-0.036371	3.395053
202.915898	3502.935451	1.591503	-0.036437	3.399826
203.391537	3513.916498	1.596507	-0.036529	3.404599
203.890299	3524.977645	1.601512	-0.036625	3.409403
204.121126	3535.965872	1.606517	-0.036671	3.414136
204.591938	3546.999428	1.611521	-0.036763	3.418911
204.872550	3557.996960	1.616526	-0.036818	3.423641
205.471122	3569.034033	1.621531	-0.036933	3.428419
205.713237	3580.027934	1.626536	-0.036981	3.433130
206.065352	3591.056732	1.631540	-0.037050	3.437862
206.296431	3602.070468	1.636545	-0.037096	3.442567
206.760510	3613.114075	1.641550	-0.037186	3.447305
207.022418	3624.100652	1.646555	-0.037238	3.451989
207.525083	3635.129971	1.651559	-0.037335	3.456713
207.621368	3646.142311	1.656564	-0.037356	3.461375
207.972600	3657.160329	1.661569	-0.037424	3.466064
208.028105	3668.164944	1.666573	-0.037437	3.470706
208.507921	3679.192114	1.671578	-0.037530	3.475400
209.045143	3690.177291	1.676583	-0.037634	3.480077
209.395807	3701.231738	1.681588	-0.037702	3.484755
209.576303	3712.259115	1.686592	-0.037739	3.489396
209.908107	3723.244381	1.691597	-0.037804	3.494030
210.167415	3734.290469	1.696602	-0.037855	3.498675
210.632189	3745.280567	1.701606	-0.037945	3.503314
210.977369	3756.324192	1.706611	-0.038013	3.507956
211.201801	3767.311988	1.711616	-0.038057	3.512554
211.523291	3778.330890	1.716621	-0.038120	3.517170
211.933790	3789.335167	1.721625	-0.038200	3.521784
212.215566	3800.386108	1.726630	-0.038256	3.526397
212.659837	3811.379141	1.731635	-0.038342	3.530998
212.940998	3822.393987	1.736640	-0.038397	3.535583
213.062746	3833.427095	1.741644	-0.038423	3.540153
213.566988	3844.413069	1.746649	-0.038520	3.544739
213.939420	3855.452288	1.751654	-0.038593	3.549327
214.300885	3866.458197	1.756658	-0.038663	3.553894
214.711703	3877.486622	1.761663	-0.038743	3.558470
215.171674	3888.481389	1.766668	-0.038832	3.563031
215.488036	3899.524624	1.771673	-0.038894	3.567590
215.726021	3910.506325	1.776677	-0.038942	3.572110
215.981498	3921.559388	1.781682	-0.038992	3.576655
216.527249	3932.523087	1.786687	-0.039098	3.581189
216.989606	3943.570977	1.791692	-0.039187	3.585743
217.178364	3954.582807	1.796696	-0.039225	3.590247
217.469569	3965.610520	1.801701	-0.039283	3.594762
217.745439	3976.616445	1.806706	-0.039337	3.599261
218.273144	3987.631788	1.811710	-0.039439	3.603785
218.542507	3998.663009	1.816715	-0.039492	3.608283
218.888346	4009.650870	1.821720	-0.039560	3.612765
219.265313	4020.680775	1.826725	-0.039633	3.617262
219.566009	4031.686889	1.831729	-0.039692	3.621735
219.851623	4042.706224	1.836734	-0.039749	3.626207
220.108358	4053.732308	1.841739	-0.039800	3.630673
220.547899	4064.713827	1.846744	-0.039885	3.635134
220.842103	4075.774020	1.851748	-0.039943	3.639607
220.934851	4086.777310	1.856753	-0.039963	3.644029
221.501762	4097.801835	1.861758	-0.040072	3.648505
221.872406	4108.865459	1.866762	-0.040144	3.652970
222.104614	4119.880800	1.871767	-0.040190	3.657396
222.433584	4130.865520	1.876772	-0.040255	3.661814
222.874446	4141.900311	1.881777	-0.040340	3.666259
223.170933	4152.905074	1.886781	-0.040399	3.670671
223.525005	4163.938136	1.891786	-0.040468	3.675095
223.931041	4174.935839	1.896791	-0.040547	3.679504
224.292215	4185.965890	1.901795	-0.040617	3.683917
224.630161	4196.995040	1.906800	-0.040683	3.688321
224.682355	4207.996815	1.911805	-0.040696	3.692680
225.106137	4219.001936	1.916810	-0.040778	3.697074
225.533984	4229.999684	1.921814	-0.040861	3.701459
225.844991	4241.043549	1.926819	-0.040922	3.705846
226.139169	4252.044855	1.931824	-0.040980	3.710208
226.380544	4263.067481	1.936829	-0.041028	3.714569
226.929861	4274.057015	1.941833	-0.041134	3.718942
227.224461	4285.112248	1.946838	-0.041192	3.723311
227.635350	4296.116442	1.951843	-0.041272	3.727666
227.933751	4307.138128	1.956847	-0.041331	3.732011
228.334305	4318.123450	1.961852	-0.041408	3.736347
228.667420	4329.159224	1.966857	-0.041474	3.740691
