Wed Nov 23 17:50:12 2022

Number of Points = 2200
Depth (nm)	Load (µN)	Time (s)	Depth (V)	Load (V)
-3.835598	1.170802	0.000000	-0.078469	1.252084
0.000000	8.098193	0.005005	-0.079190	1.261712
4.157896	17.698673	0.010009	-0.079973	1.274450
7.602571	28.706149	0.015014	-0.080622	1.288353
10.282195	39.972875	0.020019	-0.081127	1.302084
12.506043	51.134869	0.025024	-0.081547	1.315371
14.351791	62.312350	0.030028	-0.081897	1.328390
15.583434	73.508381	0.035033	-0.082130	1.341060
16.821443	84.587944	0.040038	-0.082365	1.353489
18.066909	95.691447	0.045043	-0.082602	1.365832
18.910519	106.845635	0.050047	-0.082763	1.377963
19.892354	117.864116	0.055052	-0.082950	1.389899
21.083573	128.920299	0.060057	-0.083176	1.401850
21.830510	140.085980	0.065061	-0.083319	1.413646
22.467166	151.173566	0.070066	-0.083441	1.425225
23.314331	162.155560	0.075071	-0.083603	1.436679
24.648329	173.171191	0.080076	-0.083856	1.448253
26.311835	184.173074	0.085080	-0.084171	1.459838
27.298791	195.329394	0.090085	-0.084359	1.471243
28.922291	206.308838	0.095090	-0.084666	1.482611
30.253806	217.393085	0.100094	-0.084919	1.493891
31.642528	228.467712	0.105099	-0.085182	1.505097
32.752574	239.571181	0.110104	-0.085393	1.516151
34.159473	250.582933	0.115109	-0.085660	1.527138
35.115872	261.727588	0.120113	-0.085842	1.538019
36.865021	272.565700	0.125118	-0.086173	1.548801
38.854265	283.691613	0.130123	-0.086549	1.559856
40.634212	294.712832	0.135128	-0.086886	1.570666
42.101935	305.850908	0.140132	-0.087164	1.581406
43.304629	316.958750	0.145137	-0.087392	1.591960
44.496223	328.006670	0.150142	-0.087619	1.602385
45.344605	339.091092	0.155146	-0.087781	1.612665
46.785185	350.111598	0.160151	-0.088054	1.623010
48.055824	361.109723	0.165156	-0.088295	1.633216
49.602493	372.155332	0.170161	-0.088588	1.643487
50.791602	383.234609	0.175165	-0.088814	1.653610
52.000449	394.328829	0.180170	-0.089043	1.663691
52.977527	405.366530	0.185175	-0.089229	1.673590
54.166984	416.378674	0.190180	-0.089455	1.683474
55.383083	427.454338	0.195184	-0.089686	1.693361
56.475007	438.499987	0.200189	-0.089894	1.703128
57.553773	449.548118	0.205194	-0.090099	1.712836
58.461185	460.620023	0.210198	-0.090272	1.722459
59.507967	471.633898	0.215203	-0.090471	1.732020
60.737859	482.658882	0.220208	-0.090704	1.741591
61.713796	493.734071	0.225213	-0.090890	1.751076
62.696557	504.760531	0.230217	-0.091077	1.760472
63.590719	515.865283	0.235222	-0.091248	1.769856
64.408988	526.876609	0.240227	-0.091404	1.779092
65.337010	537.894478	0.245232	-0.091581	1.788317
66.434106	548.920798	0.250236	-0.091790	1.797549
67.454506	559.950749	0.255241	-0.091984	1.806714
68.385744	571.052446	0.260246	-0.092161	1.815865
68.923155	582.091285	0.265250	-0.092265	1.824810
69.845298	593.111177	0.270255	-0.092441	1.833803
70.845869	604.116354	0.275260	-0.092631	1.842761
71.936661	615.152561	0.280265	-0.092839	1.851724
72.736309	626.248154	0.285269	-0.092991	1.860611
73.599725	637.248290	0.290274	-0.093156	1.869399
74.355777	648.322963	0.295279	-0.093301	1.878174
75.184457	659.325791	0.300283	-0.093459	1.886871
76.186581	670.335714	0.305288	-0.093650	1.895580
77.153888	681.410003	0.310293	-0.093834	1.904289
77.731265	692.462140	0.315298	-0.093945	1.912838
78.551743	703.493814	0.320302	-0.094102	1.921397
79.317030	714.505223	0.325307	-0.094248	1.929888
80.308472	725.532811	0.330312	-0.094437	1.938412
81.115220	736.567410	0.335317	-0.094591	1.946856
82.075114	747.585298	0.340321	-0.094774	1.955290
82.798976	758.664069	0.345326	-0.094912	1.963673
83.744139	769.654918	0.350331	-0.095092	1.972010
84.417407	780.737191	0.355335	-0.095221	1.980311
85.364392	791.726495	0.360340	-0.095402	1.988578
86.160392	802.788973	0.365345	-0.095554	1.996825
86.721231	813.843631	0.370350	-0.095662	2.004974
87.398971	824.846197	0.375354	-0.095792	2.013081
88.023335	835.910636	0.380359	-0.095912	2.021187
88.710605	846.901746	0.385364	-0.096043	2.029223
89.440575	857.961795	0.390369	-0.096183	2.037286
90.065403	868.989236	0.395373	-0.096303	2.045269
91.032456	879.980045	0.400378	-0.096487	2.053278
91.490869	891.071992	0.405383	-0.096576	2.061203
92.339304	902.037660	0.410387	-0.096738	2.069103
93.071342	913.106484	0.415392	-0.096878	2.077017
93.781553	924.128487	0.420397	-0.097014	2.084863
94.351172	935.189179	0.425402	-0.097124	2.092672
95.064535	946.186383	0.430406	-0.097260	2.100443
95.826350	957.188762	0.435411	-0.097406	2.108199
96.697592	968.246760	0.440416	-0.097572	2.115990
97.425717	979.247489	0.445421	-0.097712	2.123680
98.171537	990.314672	0.450425	-0.097854	2.131391
98.679405	1001.360613	0.455430	-0.097952	2.139005
99.372822	1012.342675	0.460435	-0.098085	2.146592
100.137328	1023.394418	0.465439	-0.098231	2.154214
101.050707	1034.396818	0.470444	-0.098405	2.161809
101.870016	1045.448189	0.475449	-0.098562	2.169390
102.471152	1056.501653	0.480454	-0.098677	2.176896
102.990668	1067.547026	0.485458	-0.098778	2.184352
103.925928	1078.477399	0.490463	-0.098956	2.191799
104.827149	1089.552580	0.495468	-0.099128	2.199309
105.667173	1100.587456	0.500472	-0.099288	2.206752
106.248911	1111.644517	0.505477	-0.099400	2.214128
106.824310	1122.658548	0.510482	-0.099511	2.221450
107.480927	1133.670925	0.515487	-0.099637	2.228764
108.256230	1144.696755	0.520491	-0.099785	2.236089
108.838457	1155.737674	0.525496	-0.099897	2.243357
109.666079	1166.753712	0.530501	-0.100055	2.250639
110.194896	1177.803999	0.535506	-0.100157	2.257854
110.785103	1188.825869	0.540510	-0.100270	2.265042
111.579146	1199.795928	0.545515	-0.100422	2.272216
112.147535	1210.882092	0.550520	-0.100531	2.279394
112.811041	1221.874673	0.555524	-0.100658	2.286510
113.577639	1232.916991	0.560529	-0.100805	2.293656
113.904052	1243.958355	0.565534	-0.100869	2.300688
114.625328	1254.948671	0.570539	-0.101007	2.307748
115.187290	1266.018945	0.575543	-0.101115	2.314803
115.947444	1276.980149	0.580548	-0.101261	2.321810
116.609890	1288.027625	0.585553	-0.101388	2.328828
117.255372	1299.085664	0.590558	-0.101512	2.335829
117.746281	1310.099251	0.595562	-0.101606	2.342749
118.448994	1321.089386	0.600567	-0.101741	2.349678
119.183207	1332.126041	0.605572	-0.101881	2.356620
119.922307	1343.162956	0.610576	-0.102023	2.363543
120.408556	1354.201235	0.615581	-0.102117	2.370396
120.899359	1365.215895	0.620586	-0.102212	2.377215
121.445510	1376.251170	0.625591	-0.102317	2.384038
122.180358	1387.239891	0.630595	-0.102457	2.390851
122.892269	1398.273273	0.635600	-0.102594	2.397667
123.424308	1409.324556	0.640605	-0.102696	2.404438
123.846924	1420.356613	0.645610	-0.102778	2.411157
124.230305	1431.372219	0.650614	-0.102853	2.417840
124.766966	1442.388074	0.655619	-0.102956	2.424534
125.488412	1453.366918	0.660624	-0.103095	2.431224
126.212262	1464.416244	0.665628	-0.103233	2.437937
126.941002	1475.423319	0.670633	-0.103373	2.444607
127.532610	1486.487498	0.675638	-0.103486	2.451267
128.069766	1497.482485	0.680643	-0.103590	2.457857
128.834690	1508.493420	0.685647	-0.103736	2.464482
129.572226	1519.533100	0.690652	-0.103877	2.471100
130.119317	1530.564642	0.695657	-0.103983	2.477660
130.254034	1541.639839	0.700661	-0.104011	2.484150
130.717854	1552.614111	0.705666	-0.104100	2.490626
131.287840	1563.632214	0.710671	-0.104210	2.497131
132.004823	1574.644159	0.715676	-0.104347	2.503642
132.564087	1585.671062	0.720680	-0.104455	2.510115
133.105100	1596.698678	0.725685	-0.104559	2.516569
133.666334	1607.730352	0.730690	-0.104667	2.523012
134.430346	1618.723159	0.735695	-0.104813	2.529454
135.022001	1629.751139	0.740699	-0.104927	2.535867
135.723488	1640.764285	0.745704	-0.105061	2.542276
136.513395	1651.795351	0.750709	-0.105212	2.548694
137.051042	1662.851574	0.755713	-0.105316	2.555065
137.171716	1673.890821	0.760718	-0.105341	2.561334
137.526735	1684.886251	0.765723	-0.105411	2.567606
138.288293	1695.926100	0.770728	-0.105556	2.573960
138.640410	1706.952933	0.775732	-0.105625	2.580218
139.208156	1717.935512	0.780737	-0.105734	2.586475
139.665019	1728.980354	0.785742	-0.105823	2.592731
140.284162	1739.942651	0.790747	-0.105942	2.598954
140.854907	1751.016904	0.795751	-0.106052	2.605217
141.534171	1762.006540	0.800756	-0.106182	2.611436
142.022639	1773.057827	0.805761	-0.106276	2.617641
142.538884	1784.059815	0.810765	-0.106376	2.623808
143.001383	1795.089312	0.815770	-0.106465	2.629967
143.487756	1806.112115	0.820775	-0.106559	2.636112
144.193424	1817.109061	0.825780	-0.106694	2.642266
144.607266	1828.170013	0.830784	-0.106775	2.648390
145.132036	1839.174166	0.835789	-0.106876	2.654488
145.552877	1850.211682	0.840794	-0.106958	2.660573
145.884802	1861.213416	0.845799	-0.107023	2.666608
146.502824	1872.236580	0.850803	-0.107141	2.672690
147.000707	1883.245593	0.855808	-0.107238	2.678730
147.615934	1894.259307	0.860813	-0.107356	2.684779
148.008083	1905.328914	0.865817	-0.107432	2.690807
148.426209	1916.295838	0.870822	-0.107513	2.696770
149.209303	1927.327857	0.875827	-0.107663	2.702816
149.654953	1938.358998	0.880832	-0.107749	2.708791
150.100669	1949.379914	0.885836	-0.107836	2.714747
150.528144	1960.393767	0.890841	-0.107919	2.720684
151.114306	1971.408370	0.895846	-0.108031	2.726634
151.725531	1982.460567	0.900850	-0.108149	2.732595
152.261900	1993.421671	0.905855	-0.108252	2.738483
152.820617	2004.469329	0.910860	-0.108360	2.744407
153.231630	2015.507587	0.915865	-0.108439	2.750289
153.851339	2026.513806	0.920869	-0.108558	2.756175
154.121859	2037.554255	0.925874	-0.108612	2.762010
154.586653	2048.538785	0.930879	-0.108702	2.767835
155.123687	2059.547897	0.935884	-0.108805	2.773671
155.601288	2070.559164	0.940888	-0.108898	2.779487
156.059178	2081.613431	0.945893	-0.108986	2.785310
156.559153	2092.612702	0.950898	-0.109083	2.791099
156.862257	2103.627054	0.955902	-0.109143	2.796852
157.331306	2114.657211	0.960907	-0.109233	2.802628
157.704591	2125.679733	0.965912	-0.109306	2.808372
158.236160	2136.692748	0.970917	-0.109409	2.814125
158.609664	2147.707187	0.975921	-0.109481	2.819842
159.170503	2158.723211	0.980926	-0.109589	2.825577
159.867424	2169.728905	0.985931	-0.109723	2.831317
160.251735	2180.788552	0.990936	-0.109798	2.837023
160.677570	2191.784547	0.995940	-0.109880	2.842692
161.174144	2202.799699	1.000945	-0.109976	2.848371
161.440611	2213.838507	1.005950	-0.110029	2.854014
161.934711	2224.837661	1.010954	-0.110124	2.859661
162.334395	2235.870777	1.015959	-0.110202	2.865299
162.910831	2246.887461	1.020964	-0.110313	2.870945
163.256596	2257.921365	1.025969	-0.110381	2.876553
163.632089	2268.925833	1.030973	-0.110454	2.882140
164.038885	2279.928204	1.035978	-0.110533	2.887720
164.602081	2290.970176	1.040983	-0.110641	2.893332
165.007831	2301.977771	1.045988	-0.110720	2.898892
165.564773	2312.991020	1.050992	-0.110827	2.904468
166.072775	2324.014596	1.055997	-0.110925	2.910030
166.557439	2335.032344	1.061002	-0.111019	2.915575
166.760098	2346.079100	1.066006	-0.111060	2.921081
167.192812	2357.063243	1.071011	-0.111144	2.926581
167.688995	2368.098670	1.076016	-0.111240	2.932104
168.109726	2379.100982	1.081021	-0.111321	2.937590
168.403065	2390.147007	1.086025	-0.111379	2.943068
168.866931	2401.124861	1.091030	-0.111469	2.948527
169.349480	2412.169596	1.096035	-0.111562	2.954012
169.746266	2423.192939	1.101039	-0.111639	2.959463
170.104281	2434.202670	1.106044	-0.111709	2.964892
170.546825	2445.224205	1.111049	-0.111795	2.970329
170.843241	2456.262868	1.116054	-0.111853	2.975743
171.502559	2467.238000	1.121058	-0.111980	2.981169
172.020989	2478.239431	1.126063	-0.112080	2.986577
172.784514	2489.285390	1.131068	-0.112226	2.992033
173.149362	2500.318506	1.136073	-0.112297	2.997414
173.508351	2511.339910	1.141077	-0.112367	3.002779
173.713592	2522.360535	1.146082	-0.112408	3.008112
174.099965	2533.354628	1.151087	-0.112483	3.013449
174.415643	2544.414510	1.156091	-0.112545	3.018798
174.828064	2555.370850	1.161096	-0.112625	3.024101
175.223519	2566.457223	1.166101	-0.112702	3.029455
175.304905	2577.441608	1.171106	-0.112720	3.034706
175.766603	2588.486881	1.176110	-0.112810	3.040030
176.152842	2599.464663	1.181115	-0.112885	3.045303
176.788848	2610.493126	1.186120	-0.113007	3.050625
177.378427	2621.478791	1.191125	-0.113120	3.055911
177.724465	2632.542396	1.196129	-0.113188	3.061191
178.127507	2643.513282	1.201134	-0.113266	3.066425
178.531189	2654.590700	1.206139	-0.113345	3.071701
178.767520	2665.574291	1.211143	-0.113392	3.076901
179.094662	2676.615128	1.216148	-0.113456	3.082131
179.640573	2687.595246	1.221153	-0.113561	3.087353
180.016938	2698.647823	1.226158	-0.113635	3.092578
180.595980	2709.620401	1.231162	-0.113746	3.097784
180.897459	2720.683605	1.236167	-0.113805	3.102985
181.355999	2731.679308	1.241172	-0.113894	3.108168
181.670214	2742.705280	1.246177	-0.113956	3.113336
181.931226	2753.740591	1.251181	-0.114007	3.118492
182.293360	2764.741907	1.256186	-0.114078	3.123638
182.732572	2775.766901	1.261191	-0.114163	3.128797
183.063036	2786.771968	1.266195	-0.114228	3.133923
183.681667	2797.768204	1.271200	-0.114347	3.139076
184.273106	2808.801958	1.276205	-0.114460	3.144234
184.728180	2819.823470	1.281210	-0.114549	3.149359
185.044257	2830.856882	1.286214	-0.114611	3.154462
185.341228	2841.869026	1.291219	-0.114669	3.159545
185.587095	2852.876480	1.296224	-0.114718	3.164611
186.203977	2863.896808	1.301228	-0.114836	3.169723
186.607133	2874.900202	1.306233	-0.114915	3.174792
187.073902	2885.924460	1.311238	-0.115005	3.179870
187.384980	2896.963741	1.316243	-0.115066	3.184926
187.798391	2907.957550	1.321247	-0.115147	3.189966
188.311014	2918.986061	1.326252	-0.115245	3.195028
188.949618	2929.976203	1.331257	-0.115368	3.200080
189.414445	2941.014395	1.336262	-0.115458	3.205123
189.917911	2952.046849	1.341266	-0.115555	3.210161
190.110015	2963.054801	1.346271	-0.115594	3.215139
190.618588	2974.039134	1.351276	-0.115692	3.220140
191.125165	2985.079249	1.356280	-0.115790	3.225158
191.582630	2996.100938	1.361285	-0.115878	3.230153
192.081221	3007.124181	1.366290	-0.115975	3.235147
192.429730	3018.128153	1.371295	-0.116043	3.240104
192.757571	3029.151039	1.376299	-0.116107	3.245060
193.333117	3040.172291	1.381304	-0.116218	3.250039
193.521300	3051.196443	1.386309	-0.116256	3.254963
193.841353	3062.211148	1.391314	-0.116319	3.259891
194.162921	3073.220556	1.396318	-0.116382	3.264810
194.520333	3084.254349	1.401323	-0.116451	3.269736
194.649128	3095.246356	1.406328	-0.116478	3.274608
195.186811	3106.275462	1.411332	-0.116582	3.279540
195.735803	3117.285164	1.416337	-0.116688	3.284458
196.383231	3128.286864	1.421342	-0.116812	3.289376
196.908543	3139.313927	1.426347	-0.116913	3.294284
197.315008	3150.330998	1.431351	-0.116992	3.299164
197.815111	3161.351180	1.436356	-0.117089	3.304050
198.228612	3172.355439	1.441361	-0.117169	3.308912
198.639967	3183.409825	1.446366	-0.117249	3.313787
198.908238	3194.382134	1.451370	-0.117302	3.318602
199.381062	3205.427951	1.456375	-0.117394	3.323467
199.791638	3216.442495	1.461380	-0.117473	3.328304
200.264268	3227.438042	1.466384	-0.117565	3.333133
200.736035	3238.457454	1.471389	-0.117656	3.337965
201.348912	3249.479751	1.476394	-0.117774	3.342808
201.666539	3260.520298	1.481399	-0.117836	3.347616
201.946833	3271.522293	1.486403	-0.117891	3.352396
202.428367	3282.547865	1.491408	-0.117984	3.357204
202.783944	3293.553692	1.496413	-0.118054	3.361981
203.176262	3304.574731	1.501417	-0.118130	3.366762
203.536872	3315.588602	1.506422	-0.118201	3.371529
203.711135	3326.600970	1.511427	-0.118236	3.376267
204.062434	3337.617750	1.516432	-0.118305	3.381021
204.511571	3348.646618	1.521436	-0.118392	3.385784
205.030933	3359.651467	1.526441	-0.118492	3.390540
205.489895	3370.642057	1.531446	-0.118581	3.395275
205.713302	3381.726861	1.536451	-0.118625	3.400015
206.074035	3392.687131	1.541455	-0.118696	3.404713
206.450034	3403.741168	1.546460	-0.118769	3.409445
206.781376	3414.711865	1.551465	-0.118834	3.414130
207.264953	3425.765305	1.556469	-0.118927	3.418862
207.657776	3436.757438	1.561474	-0.119004	3.423550
207.981363	3447.812948	1.566479	-0.119067	3.428251
208.434853	3458.774070	1.571484	-0.119155	3.432920
208.812057	3469.821997	1.576488	-0.119229	3.437610
209.349020	3480.805860	1.581493	-0.119332	3.442286
209.513882	3491.889976	1.586498	-0.119366	3.446954
209.765267	3502.852237	1.591503	-0.119416	3.451575
210.127862	3513.899095	1.596507	-0.119486	3.456238
210.472512	3524.871143	1.601512	-0.119554	3.460861
211.259238	3535.909067	1.606517	-0.119704	3.465555
211.910219	3546.897719	1.611521	-0.119829	3.470207
212.435972	3557.944834	1.616526	-0.119930	3.474863
212.728098	3568.964028	1.621531	-0.119988	3.479475
213.033940	3579.991379	1.626536	-0.120048	3.484085
213.583335	3591.010501	1.631540	-0.120154	3.488713
213.873428	3601.995037	1.636545	-0.120211	3.493292
214.308696	3613.013145	1.641550	-0.120295	3.497894
214.829173	3624.039773	1.646555	-0.120396	3.502503
214.942406	3635.083085	1.651559	-0.120420	3.507068
215.026433	3646.075165	1.656564	-0.120438	3.511602
215.714386	3657.061529	1.661569	-0.120570	3.516195
215.966301	3668.134706	1.666573	-0.120620	3.520770
216.303191	3679.116609	1.671578	-0.120686	3.525310
216.483581	3690.175648	1.676583	-0.120723	3.529859
216.823229	3701.155942	1.681588	-0.120789	3.534387
217.225065	3712.174487	1.686592	-0.120867	3.538932
217.705912	3723.168781	1.691597	-0.120960	3.543469
218.135060	3734.215220	1.696602	-0.121043	3.548016
218.316279	3745.197406	1.701606	-0.121080	3.552505
218.438948	3756.260793	1.706611	-0.121106	3.557014
218.685110	3767.241495	1.711616	-0.121155	3.561497
219.287639	3778.263821	1.716621	-0.121271	3.566030
219.959877	3789.259014	1.721625	-0.121399	3.570553
220.227204	3800.316184	1.726630	-0.121452	3.575052
220.505079	3811.299621	1.731635	-0.121507	3.579517
220.814583	3822.349053	1.736640	-0.121568	3.584006
221.183424	3833.351131	1.741644	-0.121640	3.588477
221.542904	3844.354987	1.746649	-0.121710	3.592942
221.914306	3855.386033	1.751654	-0.121783	3.597413
222.318036	3866.387564	1.756658	-0.121861	3.601870
222.675471	3877.403616	1.761663	-0.121931	3.606323
223.198545	3888.432078	1.766668	-0.122032	3.610792
223.568813	3899.416462	1.771673	-0.122104	3.615223
223.997958	3910.464885	1.776677	-0.122187	3.619679
224.134575	3921.478850	1.781682	-0.122216	3.624085
224.327583	3932.511148	1.786687	-0.122254	3.628500
224.547983	3943.509822	1.791692	-0.122299	3.632898
224.995487	3954.515996	1.796696	-0.122385	3.637317
225.573082	3965.520810	1.801701	-0.122496	3.641744
225.941297	3976.563522	1.806706	-0.122568	3.646159
226.172004	3987.553263	1.811710	-0.122614	3.650533
226.346998	3998.603316	1.816715	-0.122650	3.654920
226.802049	4009.563779	1.821720	-0.122738	3.659296
227.193577	4020.631121	1.826725	-0.122814	3.663701
227.697819	4031.627325	1.831729	-0.122911	3.668085
227.787363	4042.694800	1.836734	-0.122931	3.672449
227.970755	4053.645462	1.841739	-0.122968	3.676771
228.469915	4064.671396	1.846744	-0.123064	3.681150
228.808380	4075.681580	1.851748	-0.123131	3.685501
229.330782	4086.706979	1.856753	-0.123231	3.689872
229.705149	4097.737022	1.861758	-0.123304	3.694224
230.040912	4108.785563	1.866762	-0.123370	3.698574
230.304795	4119.812293	1.871767	-0.123422	3.702903
230.654674	4130.841247	1.876772	-0.123491	3.707237
230.977853	4141.812442	1.881777	-0.123554	3.711540
231.390606	4152.870859	1.886781	-0.123634	3.715881
231.669142	4163.866004	1.891786	-0.123689	3.720179
231.866521	4174.894906	1.896791	-0.123729	3.724477
232.306267	4185.869041	1.901795	-0.123814	3.728773
232.728197	4196.908390	1.906800	-0.123896	3.733088
233.238289	4207.923819	1.911805	-0.123995	3.737396
233.458642	4218.959171	1.916810	-0.124039	3.741679
233.938635	4229.930668	1.921814	-0.124132	3.745958
234.182562	4240.989808	1.926819	-0.124180	3.750242
234.407455	4251.972478	1.931824	-0.124225	3.754490
234.858634	4262.990774	1.936829	-0.124312	3.758769
235.358310	4274.019479	1.941833	-0.124409	3.763052
235.688311	4285.061002	1.946838	-0.124473	3.767318
235.837534	4296.057511	1.951843	-0.124504	3.771545
236.097473	4307.078499	1.956847	-0.124556	3.775787
236.499949	4318.045049	1.961852	-0.124634	3.780017
237.030321	4329.098347	1.966857	-0.124736	3.784287
