Wed Nov 23 17:31:11 2022

Number of Points = 2200
Depth (nm)	Load (µN)	Time (s)	Depth (V)	Load (V)
-5.958798	0.080322	0.000000	0.101495	0.721585
0.000000	4.483664	0.005005	0.100376	0.735147
6.692878	12.260606	0.010009	0.099118	0.755679
13.313187	22.351379	0.015014	0.097874	0.780036
18.214232	33.751966	0.020019	0.096951	0.804883
21.674722	45.541447	0.025024	0.096299	0.828712
23.775970	57.370981	0.030028	0.095902	0.851056
25.481486	68.964454	0.035033	0.095579	0.872171
26.538702	80.504213	0.040038	0.095377	0.892294
27.625023	91.855033	0.045043	0.095171	0.911682
28.690192	103.120248	0.050047	0.094968	0.930515
29.540117	114.413838	0.055052	0.094806	0.948892
30.209559	125.676356	0.060057	0.094678	0.966769
30.778012	136.950275	0.065061	0.094568	0.984281
31.243577	148.138792	0.070066	0.094478	1.001303
32.056442	159.265630	0.075071	0.094323	1.018138
32.452186	170.487846	0.080076	0.094246	1.034614
33.236071	181.589884	0.085080	0.094096	1.050863
34.272915	192.609296	0.090085	0.093898	1.066880
44.449496	201.833043	0.095090	0.091987	1.084824
46.253592	214.334852	0.100094	0.091645	1.102724
47.694108	225.916265	0.105099	0.091372	1.118936
48.926866	237.172861	0.110104	0.091138	1.134390
50.174817	248.343157	0.115109	0.090901	1.149531
51.038588	259.546759	0.120113	0.090736	1.164337
52.704962	270.502630	0.125118	0.090421	1.179015
53.954846	281.665541	0.130123	0.090183	1.193579
55.213883	292.827649	0.135128	0.089944	1.207969
56.548114	303.903265	0.140132	0.089691	1.222118
57.622641	315.050308	0.145137	0.089487	1.236075
58.818276	326.149214	0.150142	0.089260	1.249871
59.781625	337.307035	0.155146	0.089076	1.263485
60.842977	348.351756	0.160151	0.088874	1.276863
62.106505	359.419627	0.165156	0.088635	1.290214
63.468830	370.561123	0.170161	0.088376	1.303552
64.696362	381.601162	0.175165	0.088143	1.316584
65.658267	392.750032	0.180170	0.087960	1.329501
66.714238	403.814464	0.185175	0.087759	1.342237
68.075366	414.799280	0.190180	0.087501	1.354888
69.263255	425.975317	0.195184	0.087275	1.367559
70.076251	437.081989	0.200189	0.087120	1.379893
71.222089	448.130761	0.205194	0.086902	1.392184
72.025551	459.252315	0.210198	0.086749	1.404312
73.269896	470.239198	0.215203	0.086512	1.416362
74.240502	481.335006	0.220208	0.086328	1.428320
75.376572	492.417438	0.225213	0.086112	1.440227
76.139233	503.527735	0.230217	0.085966	1.451925
77.382103	514.529177	0.235222	0.085730	1.463595
78.249445	525.627581	0.240227	0.085564	1.475133
79.444713	536.649700	0.245232	0.085337	1.486622
80.321909	547.766315	0.250236	0.085170	1.498003
81.618620	558.747906	0.255241	0.084924	1.509314
82.198923	569.946803	0.260246	0.084812	1.520500
83.467901	580.864203	0.265250	0.084571	1.531571
84.373870	592.004829	0.270255	0.084399	1.542652
85.544496	603.024204	0.275260	0.084176	1.553627
86.243234	614.151031	0.280265	0.084042	1.564467
86.997914	625.202260	0.285269	0.083898	1.575179
88.031261	636.192021	0.290274	0.083701	1.585854
89.095342	647.257021	0.295279	0.083499	1.596538
90.116124	658.312758	0.300283	0.083305	1.607127
91.054857	669.408574	0.305288	0.083126	1.617656
91.610106	680.483399	0.310293	0.083019	1.627973
92.766310	691.438705	0.315298	0.082799	1.638310
93.695862	702.518021	0.320302	0.082622	1.648621
94.862514	713.554981	0.325307	0.082401	1.658904
95.686356	724.638273	0.330312	0.082243	1.669057
96.410280	735.709378	0.335317	0.082105	1.679105
97.338637	746.709258	0.340321	0.081928	1.689095
98.284205	757.787751	0.345326	0.081748	1.699100
99.427116	768.768899	0.350331	0.081530	1.709021
100.445138	779.866993	0.355335	0.081337	1.718948
100.875394	790.979991	0.360340	0.081253	1.728651
101.723707	801.959230	0.365345	0.081091	1.738312
102.313000	813.043467	0.370350	0.080978	1.747931
103.073173	824.069287	0.375354	0.080832	1.757498
103.980305	835.077531	0.380359	0.080660	1.767042
104.791845	846.164321	0.385364	0.080505	1.776571
105.451733	857.200491	0.390369	0.080378	1.785963
106.294586	868.199656	0.395373	0.080217	1.795328
106.932092	879.292771	0.400378	0.080095	1.804662
108.151009	890.242369	0.405383	0.079863	1.813997
108.650682	901.371949	0.410387	0.079767	1.823225
109.675791	912.359619	0.415392	0.079572	1.832441
110.314426	923.444379	0.420397	0.079449	1.841579
111.039351	934.467022	0.425402	0.079310	1.850646
111.821897	945.520437	0.430406	0.079161	1.859709
112.510047	956.553355	0.435411	0.079029	1.868686
113.274724	967.574160	0.440416	0.078883	1.877630
113.937029	978.649700	0.445421	0.078756	1.886547
114.628169	989.643163	0.450425	0.078623	1.895366
115.486382	1000.665291	0.455430	0.078460	1.904210
116.149167	1011.731960	0.460435	0.078332	1.912996
117.062177	1022.758375	0.465439	0.078158	1.921777
117.647026	1033.821712	0.470444	0.078046	1.930458
118.372556	1044.857977	0.475449	0.077907	1.939117
119.140961	1055.851443	0.480454	0.077760	1.947716
120.138441	1066.892973	0.485458	0.077570	1.956373
120.666704	1077.968830	0.490463	0.077468	1.964895
121.470676	1088.979673	0.495468	0.077315	1.973403
122.121541	1100.016373	0.500472	0.077190	1.981853
122.775707	1111.053958	0.505477	0.077064	1.990269
123.480631	1122.103218	0.510482	0.076929	1.998671
124.066313	1133.126504	0.515487	0.076817	2.006988
124.674128	1144.181912	0.520491	0.076700	2.015300
125.370935	1155.176111	0.525496	0.076567	2.023554
125.685776	1166.259510	0.530501	0.076505	2.031744
126.077237	1177.299093	0.535506	0.076429	2.039889
126.753636	1188.253456	0.540510	0.076299	2.048010
127.727855	1199.290662	0.545515	0.076113	2.056232
128.267650	1210.374352	0.550520	0.076009	2.064347
128.831642	1221.364724	0.555524	0.075901	2.072370
129.437117	1232.420503	0.560529	0.075784	2.080418
130.276853	1243.397782	0.565534	0.075624	2.088436
130.998824	1254.472348	0.570539	0.075486	2.096463
131.752804	1265.482193	0.575543	0.075342	2.104421
132.257062	1276.544994	0.580548	0.075244	2.112327
132.688073	1287.598213	0.585553	0.075161	2.120179
133.234960	1298.568025	0.590558	0.075055	2.127971
133.848300	1309.632654	0.595562	0.074938	2.135815
134.502958	1320.632148	0.600567	0.074812	2.143596
135.298119	1331.660876	0.605572	0.074660	2.151401
135.953823	1342.695529	0.610576	0.074534	2.159149
136.599160	1353.725525	0.615581	0.074411	2.166864
137.280199	1364.769734	0.620586	0.074280	2.174569
137.800713	1375.787447	0.625591	0.074180	2.182191
138.642190	1386.804748	0.630595	0.074019	2.189860
138.994253	1397.872871	0.635600	0.073950	2.197425
139.498256	1408.873248	0.640605	0.073853	2.204952
140.032983	1419.916888	0.645610	0.073750	2.212490
140.671403	1430.928444	0.650614	0.073627	2.220004
141.139492	1441.957268	0.655619	0.073537	2.227465
141.681941	1453.019340	0.660624	0.073432	2.234940
142.245780	1464.007660	0.665628	0.073324	2.242346
142.696358	1475.047422	0.670633	0.073236	2.249736
143.344989	1486.083445	0.675638	0.073112	2.257143
143.981225	1497.075429	0.680643	0.072990	2.264494
144.457172	1508.138562	0.685647	0.072898	2.271832
144.760616	1519.170339	0.690652	0.072838	2.279089
145.307024	1530.167828	0.695657	0.072733	2.286353
145.649133	1541.234013	0.700661	0.072666	2.293593
146.174843	1552.215585	0.705666	0.072565	2.300796
146.871933	1563.231377	0.710671	0.072431	2.308035
147.078368	1574.312461	0.715676	0.072390	2.315188
147.471057	1585.327748	0.720680	0.072313	2.322317
148.027509	1596.318365	0.725685	0.072206	2.329443
148.646762	1607.335940	0.730690	0.072087	2.336577
149.364171	1618.359528	0.735695	0.071950	2.343713
149.825554	1629.407109	0.740699	0.071861	2.350790
150.613373	1640.405017	0.745704	0.071710	2.357881
150.788012	1651.506830	0.750709	0.071674	2.364889
151.315844	1662.455745	0.755713	0.071573	2.371854
151.822895	1673.510416	0.760718	0.071475	2.378859
152.127037	1684.545501	0.765723	0.071415	2.385790
152.510912	1695.581285	0.770728	0.071340	2.392718
152.879282	1706.585811	0.775732	0.071268	2.399603
153.556530	1717.567037	0.780737	0.071139	2.406516
154.385923	1728.600134	0.785742	0.070980	2.413472
154.782847	1739.656572	0.790747	0.070903	2.420335
155.282357	1750.653518	0.795751	0.070807	2.427163
155.741377	1761.718565	0.800756	0.070718	2.434005
156.369006	1772.672720	0.805761	0.070597	2.440793
157.045019	1783.742440	0.810765	0.070468	2.447643
157.711703	1794.750343	0.815770	0.070340	2.454433
158.231022	1805.767764	0.820775	0.070240	2.461182
158.724315	1816.826540	0.825780	0.070144	2.467931
159.017098	1827.859933	0.830784	0.070087	2.474607
159.535446	1838.844667	0.835789	0.069987	2.481281
159.960138	1849.898950	0.840794	0.069904	2.487959
160.640499	1860.885497	0.845799	0.069774	2.494629
160.941295	1871.954454	0.850803	0.069715	2.501256
161.434170	1882.935505	0.855808	0.069620	2.507851
161.984239	1893.975768	0.860813	0.069514	2.514474
162.376886	1905.003644	0.865817	0.069437	2.521042
162.786933	1916.024326	0.870822	0.069357	2.527592
163.312074	1927.042997	0.875827	0.069256	2.534145
163.733439	1938.057689	0.880832	0.069174	2.540660
164.116591	1949.088952	0.885836	0.069100	2.547160
164.639065	1960.119202	0.890841	0.068999	2.553669
165.010013	1971.120279	0.895846	0.068927	2.560116
165.469858	1982.170640	0.900850	0.068838	2.566592
165.777556	1993.190262	0.905855	0.068777	2.573005
166.096574	2004.260788	0.910860	0.068715	2.579434
166.780914	2015.186707	0.915865	0.068584	2.585831
167.297839	2026.245285	0.920869	0.068484	2.592257
167.676924	2037.246345	0.925874	0.068410	2.598609
168.041200	2048.279057	0.930879	0.068339	2.604961
168.527331	2059.288266	0.935884	0.068245	2.611306
168.821907	2070.302814	0.940888	0.068187	2.617604
169.688456	2081.253065	0.945893	0.068022	2.623953
170.102232	2092.364599	0.950898	0.067941	2.630297
170.339038	2103.382120	0.955902	0.067894	2.636540
170.584532	2114.416068	0.960907	0.067845	2.642779
171.147542	2125.382030	0.965912	0.067737	2.649022
171.646812	2136.422638	0.970917	0.067640	2.655281
172.129750	2147.447794	0.975921	0.067547	2.661513
172.436320	2158.494902	0.980926	0.067487	2.667711
173.125561	2169.450319	0.985931	0.067355	2.673912
173.500605	2180.518960	0.990936	0.067282	2.680105
174.014442	2191.514168	0.995940	0.067183	2.686268
174.657488	2202.546493	1.000945	0.067059	2.692460
175.297893	2213.531420	1.005950	0.066936	2.698610
175.975396	2224.575516	1.010954	0.066806	2.704786
176.351378	2235.622922	1.015959	0.066733	2.710896
176.683183	2246.656477	1.020964	0.066668	2.716978
177.126229	2257.651938	1.025969	0.066582	2.723044
177.322700	2268.699133	1.030973	0.066543	2.729083
177.525115	2279.714436	1.035978	0.066502	2.735092
177.801386	2290.730961	1.040983	0.066447	2.741101
178.290404	2301.719526	1.045988	0.066353	2.747118
178.757344	2312.752511	1.050992	0.066263	2.753141
179.194212	2323.760406	1.055997	0.066178	2.759133
179.541065	2334.816961	1.061002	0.066110	2.765122
179.681533	2345.848217	1.066006	0.066081	2.771051
179.795705	2356.869390	1.071011	0.066057	2.776957
180.068162	2367.861106	1.076016	0.066003	2.782861
180.478139	2378.856412	1.081021	0.065923	2.788777
180.899237	2389.895660	1.086025	0.065842	2.794706
181.436317	2400.909685	1.091030	0.065738	2.800627
181.588736	2411.966549	1.096035	0.065707	2.806496
181.850060	2422.981996	1.101039	0.065655	2.812348
182.397425	2433.944121	1.106044	0.065550	2.818207
182.755597	2445.012388	1.111049	0.065480	2.824078
183.305305	2455.991530	1.116054	0.065374	2.829921
183.524512	2467.048262	1.121058	0.065330	2.835740
183.808029	2478.070298	1.126063	0.065274	2.841538
184.281067	2489.072654	1.131068	0.065182	2.847345
184.766303	2500.070218	1.136073	0.065089	2.853140
185.084566	2511.121903	1.141077	0.065026	2.858923
185.228671	2522.154806	1.146082	0.064996	2.864658
185.508130	2533.159121	1.151087	0.064941	2.870388
185.669241	2544.189547	1.156091	0.064908	2.876101
186.161945	2555.183004	1.161096	0.064813	2.881836
186.730970	2566.180921	1.166101	0.064704	2.887574
187.098044	2577.260484	1.171106	0.064632	2.893310
187.377041	2588.241089	1.176110	0.064577	2.898971
187.674298	2599.272771	1.181115	0.064518	2.904649
188.050457	2610.284396	1.186120	0.064445	2.910318
188.474832	2621.303156	1.191125	0.064363	2.915987
188.831811	2632.330637	1.196129	0.064293	2.921639
189.220640	2643.335597	1.201134	0.064217	2.927274
189.349928	2654.367389	1.206139	0.064190	2.932871
189.486704	2665.399544	1.211143	0.064162	2.938459
189.828013	2676.382378	1.216148	0.064095	2.944043
190.206679	2687.424804	1.221153	0.064021	2.949651
190.532753	2698.427474	1.226158	0.063958	2.955221
190.944840	2709.459426	1.231162	0.063878	2.960808
191.235459	2720.478349	1.236167	0.063820	2.966360
191.688017	2731.495369	1.241172	0.063733	2.971925
191.817823	2742.509757	1.246177	0.063706	2.977429
192.062991	2753.534221	1.251181	0.063657	2.982945
192.453313	2764.549892	1.256186	0.063581	2.988468
192.640917	2775.579584	1.261191	0.063543	2.993958
193.002062	2786.562091	1.266195	0.063472	2.999440
193.527881	2797.598332	1.271200	0.063371	3.004963
193.834319	2808.627131	1.276205	0.063311	3.010440
194.355642	2819.623015	1.281210	0.063210	3.015922
194.666894	2830.648638	1.286214	0.063149	3.021378
195.111257	2841.670432	1.291219	0.063063	3.026842
195.470290	2852.696748	1.296224	0.062993	3.032285
195.717310	2863.716733	1.301228	0.062944	3.037699
196.128487	2874.709317	1.306233	0.062864	3.043113
196.570406	2885.751279	1.311238	0.062778	3.048547
196.821819	2896.751395	1.316243	0.062728	3.053923
197.296785	2907.789406	1.321247	0.062637	3.059340
197.534717	2918.801434	1.326252	0.062589	3.064700
197.849936	2929.834515	1.331257	0.062527	3.070073
197.922942	2940.845443	1.336262	0.062511	3.075390
198.381073	2951.855515	1.341266	0.062422	3.080753
198.569858	2962.876367	1.346271	0.062384	3.086073
199.142253	2973.881807	1.351276	0.062274	3.091431
199.592164	2984.855896	1.356280	0.062187	3.096748
200.170222	2995.923760	1.361285	0.062076	3.102118
200.507892	3006.945184	1.366290	0.062009	3.107423
201.052315	3017.950115	1.371295	0.061905	3.112739
201.412638	3028.964548	1.376299	0.061834	3.118026
201.828797	3040.003932	1.381304	0.061753	3.123322
202.050056	3051.041621	1.386309	0.061709	3.128582
202.320782	3062.024712	1.391314	0.061656	3.133814
202.571650	3073.064074	1.396318	0.061606	3.139061
202.896509	3084.061918	1.401323	0.061542	3.144289
203.434882	3095.060700	1.406328	0.061438	3.149539
203.804405	3106.097483	1.411332	0.061366	3.154775
204.321251	3117.117026	1.416337	0.061267	3.160014
204.636693	3128.139127	1.421342	0.061205	3.165218
205.028228	3139.142675	1.426347	0.061129	3.170415
205.193075	3150.178894	1.431351	0.061095	3.175587
205.615293	3161.177383	1.436356	0.061013	3.180769
205.856517	3172.215617	1.441361	0.060965	3.185936
206.230152	3183.209783	1.446366	0.060892	3.191092
206.415776	3194.261507	1.451370	0.060855	3.196240
206.690571	3205.253938	1.456375	0.060800	3.201366
207.026845	3216.289632	1.461380	0.060734	3.206511
207.382253	3227.285686	1.466384	0.060665	3.211632
207.553287	3238.322076	1.471389	0.060630	3.216738
207.775449	3249.326001	1.476394	0.060586	3.221829
207.879671	3260.361378	1.481399	0.060563	3.226910
208.232841	3271.340031	1.486403	0.060495	3.231990
208.533271	3282.390507	1.491408	0.060435	3.237088
208.821069	3293.399470	1.496413	0.060379	3.242157
208.906028	3304.434617	1.501417	0.060360	3.247203
209.235553	3315.422554	1.506422	0.060295	3.252253
209.535428	3326.460501	1.511427	0.060236	3.257313
209.979182	3337.431101	1.516432	0.060150	3.262353
210.331186	3348.504802	1.521436	0.060082	3.267421
210.686441	3359.479180	1.526441	0.060012	3.272435
210.916662	3370.522589	1.531446	0.059966	3.277457
211.125263	3381.538154	1.536451	0.059924	3.282456
211.575921	3392.557444	1.541455	0.059837	3.287481
211.858007	3403.560423	1.546460	0.059782	3.292468
212.105622	3414.582590	1.551465	0.059732	3.297452
212.433463	3425.586202	1.556469	0.059668	3.302430
212.730584	3436.623199	1.561474	0.059610	3.307412
212.767784	3447.639561	1.566479	0.059600	3.312344
213.087507	3458.668071	1.571484	0.059537	3.317310
213.393545	3469.645157	1.576488	0.059477	3.322244
213.679767	3480.706257	1.581493	0.059421	3.327205
213.735817	3491.702021	1.586498	0.059407	3.332100
214.073704	3502.717004	1.591503	0.059341	3.337033
214.293478	3513.717292	1.596507	0.059297	3.341937
214.862535	3524.750702	1.601512	0.059188	3.346891
215.186731	3535.738179	1.606517	0.059124	3.351788
215.575606	3546.787461	1.611521	0.059049	3.356713
215.914700	3557.793687	1.616526	0.058982	3.361605
216.272586	3568.823046	1.621531	0.058912	3.366502
216.547839	3579.823153	1.626536	0.058858	3.371370
216.952732	3590.829955	1.631540	0.058779	3.376249
217.231966	3601.867056	1.636545	0.058724	3.381118
217.473545	3612.892368	1.641550	0.058676	3.385971
217.673445	3623.902531	1.646555	0.058636	3.390805
217.957817	3634.927097	1.651559	0.058580	3.395649
218.266131	3645.912912	1.656564	0.058519	3.400472
218.619441	3656.962356	1.661569	0.058450	3.405321
218.920121	3667.961339	1.666573	0.058391	3.410135
219.223942	3678.983921	1.671578	0.058331	3.414952
219.540706	3689.989173	1.676583	0.058269	3.419757
220.172933	3700.945315	1.681588	0.058148	3.424572
224.036706	3711.798978	1.686592	0.057420	3.429724
225.315687	3723.017111	1.691597	0.057177	3.434715
225.622889	3734.057921	1.696602	0.057117	3.439505
226.011023	3745.097022	1.701606	0.057041	3.444298
226.772429	3756.074478	1.706611	0.056896	3.449101
227.727918	3767.061529	1.711616	0.056714	3.453926
228.058645	3778.143752	1.716621	0.056649	3.458709
228.312436	3789.154772	1.721625	0.056599	3.463447
228.632726	3800.147365	1.726630	0.056536	3.468178
228.871566	3811.179960	1.731635	0.056488	3.472910
229.141214	3822.192184	1.736640	0.056435	3.477631
229.582911	3833.204549	1.741644	0.056349	3.482365
230.107257	3844.214718	1.746649	0.056248	3.487101
230.337307	3855.249812	1.751654	0.056202	3.491807
230.671523	3866.249265	1.756658	0.056137	3.496504
231.070807	3877.270346	1.761663	0.056059	3.501211
231.369551	3888.298688	1.766668	0.056000	3.505903
231.773304	3899.302217	1.771673	0.055922	3.510591
231.993899	3910.310856	1.776677	0.055878	3.515253
232.183531	3921.359862	1.781682	0.055839	3.519922
232.625690	3932.337671	1.786687	0.055754	3.524584
233.251678	3943.372638	1.791692	0.055634	3.529285
233.600637	3954.370114	1.796696	0.055565	3.533932
233.829822	3965.429922	1.801701	0.055520	3.538585
234.113457	3976.422408	1.806706	0.055464	3.543210
234.440681	3987.440142	1.811710	0.055400	3.547845
234.699070	3998.434289	1.816715	0.055348	3.552456
235.249057	4009.457756	1.821720	0.055242	3.557106
235.355679	4020.487671	1.826725	0.055220	3.561702
235.718573	4031.504014	1.831729	0.055149	3.566316
235.826305	4042.520252	1.836734	0.055126	3.570895
236.301589	4053.514154	1.841739	0.055034	3.575500
236.807256	4064.514473	1.846744	0.054936	3.580105
237.267266	4075.578030	1.851748	0.054847	3.584725
237.540706	4086.573165	1.856753	0.054793	3.589290
237.751969	4097.640215	1.861758	0.054751	3.593872
238.278212	4108.631698	1.866762	0.054650	3.598452
238.827579	4119.691534	1.871767	0.054544	3.603056
239.210780	4130.686436	1.876772	0.054469	3.607609
239.605889	4141.680193	1.881777	0.054392	3.612158
239.980303	4152.714309	1.886781	0.054319	3.616715
240.371352	4163.730725	1.891786	0.054243	3.621260
240.806911	4174.745636	1.896791	0.054159	3.625804
241.128442	4185.763776	1.901795	0.054096	3.630332
241.529541	4196.768639	1.906800	0.054018	3.634856
241.774665	4207.787579	1.911805	0.053969	3.639364
242.131443	4218.828425	1.916810	0.053899	3.643887
242.404941	4229.839189	1.921814	0.053845	3.648384
242.755126	4240.852704	1.926819	0.053777	3.652884
243.098025	4251.852711	1.931824	0.053710	3.657372
243.469110	4262.867583	1.936829	0.053637	3.661863
243.675471	4273.887218	1.941833	0.053596	3.666334
244.026624	4284.896213	1.946838	0.053527	3.670810
244.258223	4295.939625	1.951843	0.053481	3.675282
244.835831	4306.914871	1.956847	0.053370	3.679757
245.316073	4317.973941	1.961852	0.053277	3.684250
245.541476	4328.964428	1.966857	0.053232	3.688683
245.771093	4339.992176	1.971862	0.053186	3.693127
245.991159	4351.008598	1.976866	0.053142	3.697559
246.389165	4362.012911	1.981871	0.053065	3.702000
246.830115	4373.021117	1.986876	0.052979	3.706441
247.206506	4384.033944	1.991881	0.052906	3.710872
247.587968	4395.066002	1.996885	0.052832	3.715306
248.093410	4406.079233	2.001890	0.052734	3.719740
