Wed Nov 23 17:50:12 2022

Number of Points = 2200
Depth (nm)	Load (µN)	Time (s)	Depth (V)	Load (V)
-3.156231	1.154020	0.000000	-0.021518	1.114867
0.000000	7.633094	0.005005	-0.022112	1.124859
3.744827	16.916267	0.010009	-0.022817	1.138651
6.831704	27.804662	0.015014	-0.023399	1.154007
9.069948	39.049826	0.020019	-0.023822	1.169215
10.740922	50.322456	0.025024	-0.024138	1.184003
11.971699	61.533754	0.030028	-0.024372	1.198335
13.096482	72.708483	0.035033	-0.024586	1.212406
13.969141	83.865281	0.040038	-0.024752	1.226184
14.639848	95.015486	0.045043	-0.024881	1.239712
15.365219	106.103566	0.050047	-0.025020	1.253045
17.310764	116.863408	0.055052	-0.025387	1.266373
19.546387	128.016247	0.060057	-0.025810	1.280130
21.389297	139.079248	0.065061	-0.026158	1.293477
23.217371	150.293970	0.070066	-0.026504	1.306849
24.695357	161.376954	0.075071	-0.026784	1.319798
25.876009	172.511205	0.080076	-0.027008	1.332557
27.399126	183.574382	0.085080	-0.027297	1.345253
29.438884	194.482212	0.090085	-0.027682	1.357864
30.782046	205.754356	0.095090	-0.027937	1.370476
32.102531	216.824814	0.100094	-0.028188	1.382751
33.598157	227.857330	0.105099	-0.028471	1.394943
35.196451	238.916920	0.110104	-0.028774	1.407096
36.828003	249.970084	0.115109	-0.029082	1.419150
38.047651	261.133657	0.120113	-0.029314	1.431061
39.028769	272.242389	0.125118	-0.029501	1.442731
40.359928	283.242518	0.130123	-0.029753	1.454324
41.846130	294.285556	0.135128	-0.030035	1.465924
43.214846	305.371204	0.140132	-0.030295	1.477431
44.396325	316.469692	0.145137	-0.030519	1.488796
45.562504	327.510105	0.150142	-0.030741	1.500011
46.751738	338.592804	0.155146	-0.030966	1.511192
47.983439	349.636279	0.160151	-0.031200	1.522267
49.109811	360.739599	0.165156	-0.031414	1.533282
50.172069	371.767385	0.170161	-0.031616	1.544125
51.601352	382.789453	0.175165	-0.031887	1.555009
52.569260	393.909822	0.180170	-0.032072	1.565755
53.486155	404.996532	0.185175	-0.032247	1.576379
54.393388	416.017542	0.190180	-0.032419	1.586868
55.602406	427.040916	0.195184	-0.032649	1.597388
56.783989	438.090911	0.200189	-0.032874	1.607854
57.771560	449.195273	0.205194	-0.033062	1.618238
58.665192	460.248314	0.210198	-0.033232	1.628480
59.449652	471.309397	0.215203	-0.033382	1.638629
60.306933	482.338241	0.220208	-0.033546	1.648710
61.368756	493.360575	0.225213	-0.033747	1.658788
62.585731	504.373722	0.230217	-0.033979	1.668844
63.476595	515.505681	0.235222	-0.034148	1.678842
64.217695	526.533643	0.240227	-0.034290	1.688645
64.994252	537.584392	0.245232	-0.034439	1.698421
66.192542	548.572089	0.250236	-0.034666	1.708214
67.088639	559.658395	0.255241	-0.034837	1.717944
68.279040	570.645578	0.260246	-0.035063	1.727623
69.493947	581.698186	0.265250	-0.035294	1.737310
70.327367	592.793264	0.270255	-0.035453	1.746865
71.310132	603.816168	0.275260	-0.035640	1.756352
72.365287	614.838411	0.280265	-0.035841	1.765808
73.202096	625.926033	0.285269	-0.036001	1.775203
74.090228	636.951304	0.290274	-0.036170	1.784512
74.994971	648.006999	0.295279	-0.036343	1.793803
75.782836	659.038475	0.300283	-0.036493	1.802992
76.617674	670.092763	0.305288	-0.036653	1.812165
77.524252	681.116779	0.310293	-0.036825	1.821288
78.224321	692.161039	0.315298	-0.036959	1.830324
79.059051	703.218239	0.320302	-0.037119	1.839362
79.801322	714.246053	0.325307	-0.037261	1.848307
80.507667	725.300927	0.330312	-0.037396	1.857221
81.313035	736.317644	0.335317	-0.037550	1.866088
82.221628	747.351479	0.340321	-0.037723	1.874955
82.848899	758.399730	0.345326	-0.037844	1.883714
83.515381	769.442542	0.350331	-0.037971	1.892439
84.656491	780.419403	0.355335	-0.038188	1.901200
85.317843	791.508326	0.360340	-0.038315	1.909878
86.469625	802.475125	0.365345	-0.038534	1.918554
87.090516	813.609805	0.370350	-0.038653	1.927177
87.775972	824.635845	0.375354	-0.038785	1.935697
88.284065	835.659313	0.380359	-0.038883	1.944131
88.941845	846.687099	0.385364	-0.039009	1.952571
89.725426	857.694990	0.390369	-0.039159	1.960991
90.764951	868.711703	0.395373	-0.039356	1.969447
91.433138	879.782433	0.400378	-0.039484	1.977812
92.109110	890.823849	0.405383	-0.039614	1.986122
93.097792	901.776039	0.410387	-0.039802	1.994410
93.850739	912.899116	0.415392	-0.039946	2.002729
94.722452	923.895724	0.420397	-0.040113	2.010951
95.620876	934.913549	0.425402	-0.040284	2.019161
96.315742	945.959952	0.430406	-0.040417	2.027308
97.248367	956.986330	0.435411	-0.040595	2.035466
97.870199	968.058076	0.440416	-0.040714	2.043548
98.313496	979.089776	0.445421	-0.040800	2.051525
99.064875	990.100861	0.450425	-0.040944	2.059531
99.902597	1001.097375	0.455430	-0.041104	2.067517
100.788223	1012.149415	0.460435	-0.041273	2.075522
101.394504	1023.205550	0.465439	-0.041389	2.083432
102.183689	1034.212124	0.470444	-0.041540	2.091321
103.128581	1045.250698	0.475449	-0.041720	2.099239
104.032165	1056.248388	0.480454	-0.041892	2.107089
104.727214	1067.334172	0.485458	-0.042025	2.114921
105.496109	1078.310437	0.490463	-0.042172	2.122666
106.453620	1089.360761	0.495468	-0.042355	2.130477
107.013564	1100.423934	0.500472	-0.042463	2.138176
107.484952	1111.454811	0.505477	-0.042554	2.145804
108.144469	1122.475928	0.510482	-0.042680	2.153442
108.928978	1133.479616	0.515487	-0.042830	2.161070
109.635061	1144.517430	0.520491	-0.042965	2.168676
110.288413	1155.580744	0.525496	-0.043091	2.176259
110.748259	1166.591540	0.530501	-0.043180	2.183738
111.512058	1177.587384	0.535506	-0.043326	2.191249
112.021355	1188.653755	0.540510	-0.043424	2.198724
112.911081	1199.633704	0.545515	-0.043594	2.206201
113.527665	1210.702911	0.550520	-0.043712	2.213651
113.925903	1221.748742	0.555524	-0.043790	2.221012
114.578471	1232.736520	0.560529	-0.043915	2.228366
115.256170	1243.769792	0.565534	-0.044045	2.235731
115.685853	1254.824454	0.570539	-0.044128	2.243031
116.544772	1265.804371	0.575543	-0.044292	2.250353
116.896739	1276.906164	0.580548	-0.044361	2.257619
117.494404	1287.871614	0.585553	-0.044476	2.264827
118.025181	1298.913814	0.590558	-0.044578	2.272047
118.888382	1309.898635	0.595562	-0.044743	2.279279
119.477411	1320.966710	0.600567	-0.044856	2.286481
120.275232	1331.949597	0.605572	-0.045008	2.293651
120.880649	1343.009828	0.610576	-0.045125	2.300807
121.480120	1354.025529	0.615581	-0.045240	2.307911
122.181499	1365.061601	0.620586	-0.045374	2.315027
122.663379	1376.080742	0.625591	-0.045467	2.322065
123.165067	1387.141727	0.630595	-0.045564	2.329111
123.968848	1398.099666	0.635600	-0.045718	2.336135
124.664977	1409.154588	0.640605	-0.045851	2.343175
125.144054	1420.189763	0.645610	-0.045944	2.350137
125.537554	1431.240334	0.650614	-0.046020	2.357070
125.959698	1442.255699	0.655619	-0.046102	2.363967
126.446015	1453.262184	0.660624	-0.046196	2.370851
127.098856	1464.259742	0.665628	-0.046321	2.377743
127.742678	1475.314883	0.670633	-0.046445	2.384649
128.123854	1486.346284	0.675638	-0.046519	2.391467
128.352472	1497.402475	0.680643	-0.046565	2.398250
128.675332	1508.378845	0.685647	-0.046628	2.404984
129.258128	1519.422130	0.690652	-0.046740	2.411792
129.958360	1530.401297	0.695657	-0.046874	2.418565
130.494568	1541.465286	0.700661	-0.046978	2.425337
130.745486	1552.486117	0.705666	-0.047028	2.432008
131.252373	1563.526633	0.710671	-0.047125	2.438723
131.756608	1574.509223	0.715676	-0.047223	2.445384
132.149932	1585.555330	0.720680	-0.047299	2.452043
132.762555	1596.552867	0.725685	-0.047417	2.458698
133.584314	1607.559871	0.730690	-0.047574	2.465380
133.976908	1618.626950	0.735695	-0.047650	2.471997
134.405678	1629.664498	0.740699	-0.047733	2.478585
134.757543	1640.666132	0.745704	-0.047802	2.485121
135.288855	1651.697055	0.750709	-0.047905	2.491690
135.511247	1662.742683	0.755713	-0.047949	2.498192
136.272421	1673.698951	0.760718	-0.048095	2.504727
136.736442	1684.737963	0.765723	-0.048184	2.511236
137.578538	1695.758774	0.770728	-0.048345	2.517789
138.140755	1706.793629	0.775732	-0.048453	2.524281
138.448056	1717.838269	0.780737	-0.048514	2.530713
139.031934	1728.830021	0.785742	-0.048626	2.537151
139.358660	1739.890477	0.790747	-0.048690	2.543563
139.826521	1750.875434	0.795751	-0.048781	2.549942
140.294020	1761.917943	0.800756	-0.048871	2.556338
140.787447	1772.934632	0.805761	-0.048966	2.562708
141.224635	1783.955717	0.810765	-0.049051	2.569054
141.445832	1795.060260	0.815770	-0.049095	2.575392
141.691325	1806.016168	0.820775	-0.049144	2.581635
142.096245	1817.021482	0.825780	-0.049223	2.587920
142.450159	1828.046576	0.830784	-0.049292	2.594191
142.838242	1839.065083	0.835789	-0.049368	2.600450
143.054065	1850.104944	0.840794	-0.049411	2.606674
143.442619	1861.121062	0.845799	-0.049486	2.612901
143.909592	1872.128868	0.850803	-0.049577	2.619122
144.339862	1883.113100	0.855808	-0.049660	2.625309
145.555138	1894.102929	0.860813	-0.049891	2.631623
146.097103	1905.197665	0.865817	-0.049995	2.637861
146.316655	1916.228680	0.870822	-0.050039	2.643992
146.797581	1927.202827	0.875827	-0.050132	2.650124
147.208494	1938.276710	0.880832	-0.050212	2.656284
148.544924	1949.163631	0.885836	-0.050466	2.662487
150.120135	1960.092307	0.890841	-0.050764	2.668740
152.545630	1971.205576	0.895846	-0.051222	2.675226
153.143705	1982.333029	0.900850	-0.051337	2.681388
153.847819	1993.325640	0.905855	-0.051472	2.687481
154.258988	2004.383560	0.910860	-0.051551	2.693545
154.898827	2015.363597	0.915865	-0.051674	2.699592
155.341442	2026.409811	0.920869	-0.051760	2.705628
156.051827	2037.418433	0.925874	-0.051896	2.711675
156.569054	2048.444657	0.930879	-0.051996	2.717686
157.005257	2059.443868	0.935884	-0.052080	2.723655
157.675656	2070.434551	0.940888	-0.052209	2.729645
158.841714	2081.428276	0.945893	-0.052430	2.735707
159.544889	2092.501980	0.950898	-0.052565	2.741720
160.143026	2103.503772	0.955902	-0.052680	2.747665
160.601955	2114.559549	0.960907	-0.052769	2.753601
161.209086	2125.542631	0.965912	-0.052886	2.759511
161.817531	2136.573889	0.970917	-0.053002	2.765434
162.464685	2147.605618	0.975921	-0.053127	2.771351
162.846779	2158.631963	0.980926	-0.053201	2.777208
163.348048	2169.655082	0.985931	-0.053298	2.783071
163.765231	2180.666125	0.990936	-0.053379	2.788901
164.205645	2191.686326	0.995940	-0.053464	2.794728
164.611992	2202.713665	1.000945	-0.053543	2.800540
165.279081	2213.710554	1.005950	-0.053671	2.806367
165.755717	2224.763663	1.010954	-0.053763	2.812180
166.346014	2235.736835	1.015959	-0.053877	2.817957
166.909892	2246.774683	1.020964	-0.053985	2.823752
167.443201	2257.788992	1.025969	-0.054088	2.829518
167.813196	2268.862286	1.030973	-0.054160	2.835276
168.237461	2279.826196	1.035978	-0.054243	2.840975
168.662942	2290.873224	1.040983	-0.054325	2.846705
169.092750	2301.892211	1.045988	-0.054409	2.852410
169.537257	2312.883958	1.050992	-0.054495	2.858092
170.237702	2323.878919	1.055997	-0.054629	2.863804
170.752298	2334.948839	1.061002	-0.054728	2.869513
171.707153	2345.924185	1.066006	-0.054910	2.875232
172.024425	2356.997668	1.071011	-0.054972	2.880889
172.424898	2368.004137	1.076016	-0.055050	2.886515
173.086045	2379.011633	1.081021	-0.055177	2.892170
173.375064	2390.060881	1.086025	-0.055234	2.897778
173.715511	2401.047140	1.091030	-0.055300	2.903351
174.294587	2412.052497	1.096035	-0.055412	2.908959
174.797109	2423.091876	1.101039	-0.055509	2.914562
175.451012	2434.091966	1.106044	-0.055634	2.920157
175.859756	2445.135877	1.111049	-0.055714	2.925726
176.321251	2456.157643	1.116054	-0.055803	2.931282
176.668630	2467.170089	1.121058	-0.055871	2.936805
177.220291	2478.146724	1.126063	-0.055977	2.942330
177.957907	2489.185502	1.131068	-0.056118	2.947903
178.764863	2500.180739	1.136073	-0.056272	2.953455
179.264687	2511.274045	1.141077	-0.056369	2.958998
179.744032	2522.244410	1.146082	-0.056462	2.964468
179.904678	2533.312745	1.151087	-0.056495	2.969928
180.350181	2544.297203	1.156091	-0.056581	2.975379
180.646934	2555.336933	1.161096	-0.056639	2.980825
180.985492	2566.335981	1.166101	-0.056706	2.986247
181.410650	2577.352422	1.171106	-0.056788	2.991681
181.774082	2588.355274	1.176110	-0.056859	2.997089
182.154580	2599.408664	1.181115	-0.056933	3.002514
182.683333	2610.388376	1.186120	-0.057035	3.007915
183.136467	2621.422703	1.191125	-0.057123	3.013321
183.705161	2632.434991	1.196129	-0.057232	3.018724
184.107182	2643.450771	1.201134	-0.057310	3.024095
184.736778	2654.490615	1.206139	-0.057431	3.029501
185.016466	2665.498651	1.211143	-0.057486	3.034831
185.556969	2676.499357	1.216148	-0.057591	3.040185
186.405470	2687.513098	1.221153	-0.057753	3.045580
187.091532	2698.552531	1.226158	-0.057884	3.050955
187.505000	2709.542650	1.231162	-0.057964	3.056258
187.907241	2720.589104	1.236167	-0.058043	3.061576
188.369692	2731.595277	1.241172	-0.058132	3.066875
189.104407	2742.586323	1.246177	-0.058273	3.072195
189.671327	2753.642988	1.251181	-0.058382	3.077514
190.214776	2764.637169	1.256186	-0.058486	3.082791
190.652996	2775.684543	1.261191	-0.058571	3.088068
191.093037	2786.691099	1.266195	-0.058657	3.093318
191.728424	2797.676435	1.271200	-0.058779	3.098576
192.359529	2808.714973	1.276205	-0.058900	3.103849
192.957857	2819.749308	1.281210	-0.059015	3.109106
193.301007	2830.755928	1.286214	-0.059082	3.114307
193.844724	2841.783182	1.291219	-0.059187	3.119535
194.524160	2852.780953	1.296224	-0.059317	3.124760
194.774108	2863.847416	1.301228	-0.059367	3.129949
195.319180	2874.813074	1.306233	-0.059471	3.135123
195.714505	2885.860126	1.311238	-0.059548	3.140305
196.228537	2896.864827	1.316243	-0.059648	3.145476
196.800897	2907.896791	1.321247	-0.059758	3.150658
197.036785	2918.901037	1.326252	-0.059805	3.155773
197.501757	2929.908046	1.331257	-0.059895	3.160912
197.913788	2940.942780	1.336262	-0.059975	3.166049
198.209102	2951.989071	1.341266	-0.060033	3.171166
198.555073	2962.965940	1.346271	-0.060100	3.176251
199.080092	2973.977598	1.351276	-0.060202	3.181366
199.645187	2984.999313	1.356280	-0.060311	3.186484
200.172858	2996.031036	1.361285	-0.060412	3.191592
200.500471	3007.030003	1.366290	-0.060476	3.196651
201.076657	3018.078415	1.371295	-0.060587	3.201757
201.426164	3029.093756	1.376299	-0.060656	3.206810
201.592393	3040.107490	1.381304	-0.060690	3.211830
201.983370	3051.099971	1.386309	-0.060766	3.216862
202.453242	3062.117018	1.391314	-0.060856	3.221908
203.190432	3073.123939	1.396318	-0.060998	3.226975
203.780010	3084.149827	1.401323	-0.061111	3.232024
204.307588	3095.173221	1.406328	-0.061213	3.237056
204.565392	3106.216718	1.411332	-0.061264	3.242054
205.055476	3117.204621	1.416337	-0.061358	3.247049
205.422259	3128.229944	1.421342	-0.061430	3.252038
205.824473	3139.237289	1.426347	-0.061508	3.257015
206.287250	3150.272531	1.431351	-0.061598	3.262004
206.831898	3161.284237	1.436356	-0.061703	3.266986
207.182102	3172.303574	1.441361	-0.061771	3.271939
207.808947	3183.280041	1.446366	-0.061891	3.276900
208.178562	3194.345649	1.451370	-0.061964	3.281860
208.700018	3205.339357	1.456375	-0.062064	3.286801
209.040719	3216.388818	1.461380	-0.062131	3.291735
209.484981	3227.368539	1.466384	-0.062217	3.296645
209.873114	3238.408604	1.471389	-0.062292	3.301566
210.038489	3249.438643	1.476394	-0.062326	3.306448
210.261958	3260.436752	1.481399	-0.062371	3.311316
210.690704	3271.452922	1.486403	-0.062454	3.316210
210.885266	3282.489313	1.491408	-0.062493	3.321077
211.359695	3293.480902	1.496413	-0.062585	3.325951
211.830261	3304.485176	1.501417	-0.062676	3.330823
212.544537	3315.499588	1.506422	-0.062813	3.335722
213.227037	3326.519792	1.511427	-0.062944	3.340613
213.706241	3337.537946	1.516432	-0.063036	3.345471
214.279581	3348.575599	1.521436	-0.063147	3.350341
214.798645	3359.569568	1.526441	-0.063247	3.355178
215.269830	3370.596939	1.531446	-0.063338	3.360018
215.682877	3381.629532	1.536451	-0.063418	3.364845
216.117326	3392.657935	1.541455	-0.063502	3.369666
216.439437	3403.630475	1.546460	-0.063565	3.374442
216.866510	3414.672906	1.551465	-0.063648	3.379254
217.324144	3425.665643	1.556469	-0.063737	3.384042
217.726321	3436.721092	1.561474	-0.063815	3.388843
217.980684	3447.712216	1.566479	-0.063866	3.393592
218.202737	3458.739628	1.571484	-0.063910	3.398346
218.624132	3469.750680	1.576488	-0.063992	3.403110
218.813093	3480.776290	1.581493	-0.064030	3.407845
219.067226	3491.783987	1.586498	-0.064080	3.412575
219.274522	3502.804046	1.591503	-0.064122	3.417297
219.875686	3513.797377	1.596507	-0.064237	3.422048
220.440232	3524.840200	1.601512	-0.064346	3.426808
220.754634	3535.842867	1.606517	-0.064408	3.431516
221.228415	3546.873001	1.611521	-0.064499	3.436248
221.704515	3557.859114	1.616526	-0.064592	3.440954
222.456773	3568.894098	1.621531	-0.064735	3.445707
222.685226	3579.917351	1.626536	-0.064781	3.450387
223.096217	3590.932336	1.631540	-0.064861	3.455078
223.441864	3601.937571	1.636545	-0.064928	3.459752
223.963399	3612.969999	1.641550	-0.065029	3.464450
224.253796	3623.999330	1.646555	-0.065086	3.469114
224.287179	3635.012742	1.651559	-0.065095	3.473736
224.871473	3646.004491	1.656564	-0.065208	3.478406
225.438632	3657.017734	1.661569	-0.065317	3.483076
225.876518	3668.041887	1.666573	-0.065402	3.487730
226.176974	3679.053435	1.671578	-0.065461	3.492356
226.670240	3690.053664	1.676583	-0.065556	3.496994
227.175145	3701.098843	1.681588	-0.065653	3.501645
227.547871	3712.112336	1.686592	-0.065726	3.506262
227.833344	3723.110134	1.691597	-0.065782	3.510856
228.194062	3734.140677	1.696602	-0.065853	3.515466
228.271705	3745.184120	1.701606	-0.065870	3.520044
228.540657	3756.171390	1.706611	-0.065923	3.524614
228.937477	3767.208285	1.711616	-0.066001	3.529213
229.440455	3778.197193	1.716621	-0.066098	3.533797
229.781214	3789.242279	1.721625	-0.066164	3.538381
230.273076	3800.203562	1.726630	-0.066259	3.542941
231.124126	3811.235790	1.731635	-0.066422	3.547564
231.539374	3822.256251	1.736640	-0.066502	3.552128
231.819271	3833.303174	1.741644	-0.066558	3.556681
232.418407	3844.256779	1.746649	-0.066673	3.561226
232.771931	3855.341185	1.751654	-0.066742	3.565791
233.354065	3866.294715	1.756658	-0.066854	3.570322
233.802890	3877.343563	1.761663	-0.066941	3.574872
234.189877	3888.345844	1.766668	-0.067016	3.579390
234.626065	3899.415387	1.771673	-0.067101	3.583934
235.040498	3910.403549	1.776677	-0.067181	3.588438
235.304306	3921.408198	1.781682	-0.067233	3.592926
235.671551	3932.417879	1.786687	-0.067305	3.597422
236.043920	3943.444942	1.791692	-0.067378	3.601919
236.332436	3954.481284	1.796696	-0.067434	3.606406
236.444645	3965.493122	1.801701	-0.067458	3.610858
237.037733	3976.459648	1.806706	-0.067572	3.615338
237.299192	3987.531091	1.811710	-0.067624	3.619819
237.758436	3998.505158	1.816715	-0.067713	3.624276
238.223584	4009.535971	1.821720	-0.067803	3.628751
238.553531	4020.559540	1.826725	-0.067868	3.633203
238.830324	4031.594528	1.831729	-0.067922	3.637649
239.354246	4042.571252	1.836734	-0.068023	3.642092
239.757753	4053.603648	1.841739	-0.068102	3.646539
240.397189	4064.573871	1.846744	-0.068224	3.650980
240.760973	4075.645173	1.851748	-0.068295	3.655428
241.159088	4086.627056	1.856753	-0.068373	3.659838
241.607508	4097.686440	1.861758	-0.068460	3.664278
242.091911	4108.725050	1.866762	-0.068553	3.668708
242.533260	4119.745318	1.871767	-0.068639	3.673122
242.947375	4130.757134	1.876772	-0.068719	3.677523
242.998666	4141.793228	1.881777	-0.068732	3.681892
243.574722	4152.782723	1.886781	-0.068843	3.686291
243.831320	4163.814203	1.891786	-0.068893	3.690668
244.291736	4174.806112	1.896791	-0.068983	3.695046
244.674406	4185.829236	1.901795	-0.069057	3.699422
245.142430	4196.847623	1.906800	-0.069148	3.703800
245.597333	4207.861367	1.911805	-0.069236	3.708170
246.014040	4218.898372	1.916810	-0.069317	3.712539
246.475462	4229.897323	1.921814	-0.069406	3.716893
246.957241	4240.894744	1.926819	-0.069499	3.721243
247.475144	4251.940930	1.931824	-0.069599	3.725611
247.914273	4262.929538	1.936829	-0.069684	3.729943
248.115456	4273.971608	1.941833	-0.069725	3.734267
248.493758	4284.955516	1.946838	-0.069798	3.738581
248.906140	4295.999935	1.951843	-0.069878	3.742917
249.417002	4307.023455	1.956847	-0.069977	3.747249
249.685049	4318.027279	1.961852	-0.070030	3.751545
250.182890	4329.027954	1.966857	-0.070126	3.755857
