Wed Nov 23 18:28:15 2022

Number of Points = 2200
Depth (nm)	Load (µN)	Time (s)	Depth (V)	Load (V)
-171.056349	-1.978085	0.000000	-0.012604	1.087422
-134.615149	-1.171423	0.005005	-0.019442	1.106443
-65.253819	0.072199	0.010009	-0.032458	1.141303
0.000000	13.601298	0.015014	-0.044705	1.188325
6.415687	36.044957	0.020019	-0.045915	1.218400
10.047496	49.729159	0.025024	-0.046599	1.236253
12.984766	61.458539	0.030028	-0.047153	1.251276
15.788457	72.679324	0.035033	-0.047682	1.265475
18.269132	83.880392	0.040038	-0.048151	1.279358
20.578618	95.020363	0.045043	-0.048587	1.292951
22.581569	106.239747	0.050047	-0.048965	1.306364
24.493077	117.309786	0.055052	-0.049327	1.319439
26.450278	128.387085	0.060057	-0.049697	1.332409
28.361320	139.455219	0.065061	-0.050058	1.345226
30.221498	150.573394	0.070066	-0.050410	1.357954
32.007113	161.653903	0.075071	-0.050748	1.370494
33.896683	172.740066	0.080076	-0.051105	1.382964
35.498079	183.842536	0.085080	-0.051408	1.395231
37.054546	194.948635	0.090085	-0.051703	1.407376
38.777099	205.964144	0.095090	-0.052029	1.419384
40.440315	217.067448	0.100094	-0.052344	1.431359
41.778026	228.165218	0.105099	-0.052597	1.443109
43.458712	239.229053	0.110104	-0.052916	1.454853
45.016233	250.265337	0.115109	-0.053211	1.466431
46.498100	261.382313	0.120113	-0.053491	1.477970
47.820408	272.450029	0.125118	-0.053742	1.489314
49.382594	283.497304	0.130123	-0.054038	1.500635
50.633568	294.563217	0.135128	-0.054276	1.511781
52.251836	305.606316	0.140132	-0.054582	1.522949
53.602570	316.685806	0.145137	-0.054838	1.533978
54.858661	327.794604	0.150142	-0.055077	1.544924
55.926361	338.855665	0.155146	-0.055280	1.555684
57.126518	349.896073	0.160151	-0.055508	1.566394
58.391843	360.922515	0.165156	-0.055748	1.577039
59.708712	371.994941	0.170161	-0.055998	1.587672
60.792596	383.064494	0.175165	-0.056204	1.598154
62.013613	394.117275	0.180170	-0.056436	1.608597
63.102956	405.188105	0.185175	-0.056643	1.618946
64.312598	416.211383	0.190180	-0.056872	1.629224
65.423977	427.270275	0.195184	-0.057084	1.639438
66.689685	438.301175	0.200189	-0.057324	1.649612
67.794381	449.361082	0.205194	-0.057534	1.659698
68.888339	460.421208	0.210198	-0.057742	1.669719
69.993983	471.471725	0.215203	-0.057952	1.679675
71.109366	482.509462	0.220208	-0.058164	1.689564
72.409129	493.522800	0.225213	-0.058411	1.699430
73.456722	504.631683	0.230217	-0.058610	1.709244
74.215629	515.690090	0.235222	-0.058755	1.718872
75.240189	526.699558	0.240227	-0.058950	1.728483
76.059213	537.770093	0.245232	-0.059107	1.738032
77.154761	548.787356	0.250236	-0.059315	1.747564
78.002907	559.853633	0.255241	-0.059477	1.757013
78.844578	570.901828	0.260246	-0.059637	1.766395
79.740920	581.930826	0.265250	-0.059808	1.775726
80.758038	592.945384	0.270255	-0.060002	1.785031
81.671213	603.984534	0.275260	-0.060176	1.794277
82.774937	615.031768	0.280265	-0.060386	1.803536
83.777109	626.064906	0.285269	-0.060577	1.812707
84.714521	637.137263	0.290274	-0.060755	1.821845
85.566723	648.163870	0.295279	-0.060918	1.830877
86.714076	659.167911	0.300283	-0.061136	1.839928
87.677385	670.237242	0.305288	-0.061319	1.848935
88.652363	681.290471	0.310293	-0.061505	1.857888
89.305789	692.337716	0.315298	-0.061630	1.866706
90.127116	703.395538	0.320302	-0.061787	1.875536
90.838013	714.390488	0.325307	-0.061923	1.884245
91.861128	725.411161	0.330312	-0.062118	1.893018
92.486667	736.511480	0.335317	-0.062238	1.901704
93.387463	747.494521	0.340321	-0.062410	1.910335
94.323111	758.524969	0.345326	-0.062588	1.918971
94.890647	769.627092	0.350331	-0.062698	1.927526
95.679520	780.633028	0.355335	-0.062848	1.936029
96.676262	791.604235	0.360340	-0.063038	1.944521
97.562930	802.655233	0.365345	-0.063207	1.953008
98.177235	813.757543	0.370350	-0.063325	1.961425
98.639182	824.791246	0.375354	-0.063415	1.969717
99.348967	835.801196	0.380359	-0.063550	1.978019
100.039760	846.821789	0.385364	-0.063683	1.986289
100.752576	857.858872	0.390369	-0.063819	1.994543
101.353377	868.890639	0.395373	-0.063935	2.002730
102.231782	879.919325	0.400378	-0.064102	2.010950
102.662994	890.996941	0.405383	-0.064186	2.019061
103.406133	901.987124	0.410387	-0.064328	2.027153
104.034905	913.020682	0.415392	-0.064449	2.035216
104.606521	924.064944	0.420397	-0.064559	2.043240
105.320498	935.069645	0.425402	-0.064696	2.051240
105.975699	946.131310	0.430406	-0.064821	2.059234
106.437570	957.163435	0.435411	-0.064911	2.067129
106.995321	968.194357	0.440416	-0.065018	2.075017
107.507731	979.226405	0.445421	-0.065117	2.082864
108.155132	990.248554	0.450425	-0.065241	2.090707
108.857047	1001.252470	0.455430	-0.065376	2.098520
109.296084	1012.330794	0.460435	-0.065461	2.106294
109.655666	1023.355254	0.465439	-0.065531	2.113983
110.362942	1034.355474	0.470444	-0.065666	2.121709
110.649593	1045.445991	0.475449	-0.065723	2.129371
111.135892	1056.446062	0.480454	-0.065817	2.136989
111.773119	1067.435853	0.485458	-0.065939	2.144608
112.104069	1078.526175	0.490463	-0.066004	2.152198
112.615057	1089.532841	0.495468	-0.066103	2.159745
113.180549	1100.528914	0.500472	-0.066211	2.167271
113.691681	1111.603348	0.505477	-0.066310	2.174811
114.306847	1122.585152	0.510482	-0.066428	2.182287
114.813723	1133.634695	0.515487	-0.066526	2.189757
115.375612	1144.642140	0.520491	-0.066634	2.197187
115.905050	1155.694502	0.525496	-0.066736	2.204613
116.580117	1166.692931	0.530501	-0.066866	2.212011
117.133006	1177.743978	0.535506	-0.066972	2.219392
117.734843	1188.739686	0.540510	-0.067088	2.226723
118.361200	1199.790809	0.545515	-0.067208	2.234070
118.904068	1210.811443	0.550520	-0.067313	2.241356
119.180640	1221.876007	0.555524	-0.067367	2.248588
119.557402	1232.903969	0.560529	-0.067441	2.255795
119.957255	1243.907941	0.565534	-0.067518	2.262969
120.425253	1254.926461	0.570539	-0.067609	2.270144
120.861795	1265.964498	0.575543	-0.067694	2.277301
121.172102	1276.997248	0.580548	-0.067755	2.284406
121.689717	1287.985749	0.585553	-0.067854	2.291505
122.262704	1299.015414	0.590558	-0.067965	2.298619
122.708654	1310.055897	0.595562	-0.068051	2.305691
123.193848	1321.085724	0.600567	-0.068145	2.312743
123.814647	1332.073149	0.605572	-0.068264	2.319775
124.512334	1343.109612	0.610576	-0.068398	2.326832
124.852618	1354.180199	0.615581	-0.068464	2.333814
125.394134	1365.161629	0.620586	-0.068569	2.340762
125.816530	1376.202100	0.625591	-0.068651	2.347702
126.234014	1387.241668	0.630595	-0.068732	2.354619
126.762751	1398.234054	0.635600	-0.068834	2.361509
127.054545	1409.287999	0.640605	-0.068891	2.368369
127.724601	1420.281887	0.645610	-0.069020	2.375248
128.202486	1431.314736	0.650614	-0.069112	2.382093
128.333337	1442.383786	0.655619	-0.069139	2.388870
128.911817	1453.348890	0.660624	-0.069251	2.395654
129.363330	1464.409585	0.665628	-0.069338	2.402452
129.843517	1475.411208	0.670633	-0.069431	2.409200
130.560068	1486.416163	0.675638	-0.069568	2.415978
130.834283	1497.493532	0.680643	-0.069622	2.422693
131.373723	1508.452419	0.685647	-0.069726	2.429371
131.682261	1519.544974	0.690652	-0.069787	2.436064
132.146396	1530.516231	0.695657	-0.069877	2.442698
132.903891	1541.522105	0.700661	-0.070021	2.449390
133.137185	1552.620831	0.705666	-0.070068	2.456018
133.634187	1563.587315	0.710671	-0.070164	2.462601
134.249584	1574.610507	0.715676	-0.070282	2.469222
134.572170	1585.656109	0.720680	-0.070345	2.475782
134.940148	1596.681837	0.725685	-0.070417	2.482322
135.307239	1607.709162	0.730690	-0.070489	2.488845
135.801119	1618.717050	0.735695	-0.070584	2.495364
136.082983	1629.751224	0.740699	-0.070640	2.501841
136.643611	1640.748873	0.745704	-0.070748	2.508332
137.239289	1651.762318	0.750709	-0.070862	2.514822
137.779611	1662.801863	0.755713	-0.070966	2.521300
138.171953	1673.823705	0.760718	-0.071043	2.527723
138.538909	1684.874723	0.765723	-0.071114	2.534142
138.847187	1695.868783	0.770728	-0.071175	2.540501
139.409762	1706.869028	0.775732	-0.071283	2.546895
139.656226	1717.955076	0.780737	-0.071332	2.553263
140.239050	1728.918666	0.785742	-0.071444	2.559607
140.664995	1739.949115	0.790747	-0.071527	2.565945
141.080485	1750.982629	0.795751	-0.071608	2.572267
141.413060	1762.083196	0.800756	-0.071673	2.578596
141.718450	1773.019626	0.805761	-0.071733	2.584812
142.111658	1784.054802	0.810765	-0.071809	2.591084
142.458109	1795.061688	0.815770	-0.071877	2.597317
142.891013	1806.098596	0.820775	-0.071961	2.603567
143.610406	1817.057401	0.825780	-0.072099	2.609809
143.904286	1828.146334	0.830784	-0.072157	2.616033
144.361070	1839.153011	0.835789	-0.072245	2.622225
144.709619	1850.165215	0.840794	-0.072313	2.628387
144.965791	1861.204001	0.845799	-0.072364	2.634533
145.296203	1872.210159	0.850803	-0.072429	2.640659
145.832700	1883.231693	0.855808	-0.072532	2.646815
146.135831	1894.264528	0.860813	-0.072592	2.652922
146.596184	1905.265637	0.865817	-0.072681	2.659026
146.961475	1916.298142	0.870822	-0.072752	2.665115
147.391746	1927.320889	0.875827	-0.072835	2.671197
147.550536	1938.356306	0.880832	-0.072868	2.677225
148.090290	1949.333319	0.885836	-0.072972	2.683273
148.469063	1960.393546	0.890841	-0.073046	2.689325
148.596666	1971.422399	0.895846	-0.073072	2.695303
148.902322	1982.413430	0.900850	-0.073133	2.701278
149.246767	1993.442558	0.905855	-0.073200	2.707266
149.529183	2004.472372	0.910860	-0.073256	2.713232
149.889568	2015.478972	0.915865	-0.073326	2.719184
150.315127	2026.486768	0.920869	-0.073409	2.725136
150.864036	2037.520358	0.925874	-0.073514	2.731108
151.214865	2048.538616	0.930879	-0.073583	2.737026
151.553184	2059.522068	0.935884	-0.073649	2.742911
152.099326	2070.523551	0.940888	-0.073754	2.748827
152.701642	2081.570318	0.945893	-0.073870	2.754763
152.926323	2092.614945	0.950898	-0.073915	2.760623
153.202039	2103.619287	0.955902	-0.073969	2.766457
153.275223	2114.672830	0.960907	-0.073986	2.772272
153.840379	2125.627505	0.965912	-0.074095	2.778104
153.897543	2136.705352	0.970917	-0.074108	2.783904
154.315103	2147.667406	0.975921	-0.074189	2.789691
154.756155	2158.715678	0.980926	-0.074275	2.795514
155.165172	2169.730098	0.985931	-0.074354	2.801302
155.491649	2180.762645	0.990936	-0.074418	2.807075
156.112071	2191.760498	0.995940	-0.074537	2.812864
156.331208	2202.790918	1.000945	-0.074581	2.818594
156.876954	2213.797079	1.005950	-0.074686	2.824352
157.143803	2224.841994	1.010954	-0.074739	2.830074
157.607485	2235.842157	1.015959	-0.074829	2.835792
157.924374	2246.870671	1.020964	-0.074891	2.841490
158.303689	2257.894531	1.025969	-0.074965	2.847184
158.456176	2268.919420	1.030973	-0.074996	2.852831
158.675820	2279.940173	1.035978	-0.075040	2.858476
158.928090	2290.940970	1.040983	-0.075090	2.864104
159.413047	2301.973051	1.045988	-0.075184	2.869774
159.519689	2312.987880	1.050992	-0.075207	2.875364
160.197830	2323.981656	1.055997	-0.075337	2.881022
160.447805	2335.047641	1.061002	-0.075386	2.886638
160.906907	2346.031171	1.066006	-0.075475	2.892234
161.098913	2357.073277	1.071011	-0.075514	2.897808
161.541373	2368.059828	1.076016	-0.075600	2.903381
161.792151	2379.107698	1.081021	-0.075649	2.908945
162.221510	2390.112613	1.086025	-0.075733	2.914504
162.408068	2401.146438	1.091030	-0.075770	2.920030
162.872758	2412.130658	1.096035	-0.075860	2.925563
163.000120	2423.204035	1.101039	-0.075887	2.931079
163.597324	2434.144506	1.106044	-0.076002	2.936589
163.768517	2445.237883	1.111049	-0.076037	2.942100
164.042100	2456.223118	1.116054	-0.076091	2.947563
164.187362	2467.246944	1.121058	-0.076121	2.953016
164.648435	2478.253040	1.126063	-0.076210	2.958496
164.943064	2489.287048	1.131068	-0.076268	2.963956
165.254867	2500.308492	1.136073	-0.076329	2.969401
165.517006	2511.316931	1.141077	-0.076381	2.974823
165.946011	2522.333912	1.146082	-0.076464	2.980264
166.321022	2533.348635	1.151087	-0.076537	2.985686
166.858410	2544.365838	1.156091	-0.076641	2.991122
167.051066	2555.388132	1.161096	-0.076680	2.996501
167.354315	2566.410813	1.166101	-0.076739	3.001887
167.799494	2577.404629	1.171106	-0.076826	3.007269
168.200759	2588.442146	1.176110	-0.076904	3.012656
168.251500	2599.481549	1.181115	-0.076916	3.017984
168.556878	2610.485849	1.186120	-0.076976	3.023323
169.012594	2621.493677	1.191125	-0.077064	3.028675
169.311812	2632.516677	1.196129	-0.077123	3.034002
169.518902	2643.554847	1.201134	-0.077165	3.039314
169.879954	2654.529437	1.206139	-0.077235	3.044609
170.179738	2665.596790	1.211143	-0.077294	3.049929
170.372618	2676.587580	1.216148	-0.077333	3.055189
170.614480	2687.615856	1.221153	-0.077381	3.060464
171.081343	2698.607885	1.226158	-0.077471	3.065744
171.417959	2709.640818	1.231162	-0.077537	3.071017
171.692207	2720.673211	1.236167	-0.077592	3.076271
171.889603	2731.670037	1.241172	-0.077631	3.081489
172.336567	2742.690895	1.246177	-0.077718	3.086744
172.650687	2753.689852	1.251181	-0.077780	3.091961
173.238046	2764.722970	1.256186	-0.077893	3.097223
173.312483	2775.752630	1.261191	-0.077909	3.102404
173.577109	2786.788230	1.266195	-0.077962	3.107605
173.883681	2797.794154	1.271200	-0.078022	3.112789
174.184052	2808.791101	1.276205	-0.078081	3.117959
174.675546	2819.794149	1.281210	-0.078176	3.123150
174.989639	2830.853927	1.286214	-0.078238	3.128334
175.008191	2841.876222	1.291219	-0.078244	3.133452
175.404555	2852.864672	1.296224	-0.078321	3.138597
175.528613	2863.900521	1.301228	-0.078347	3.143719
175.935378	2874.907115	1.306233	-0.078426	3.148857
176.205615	2885.906216	1.311238	-0.078479	3.153964
176.551570	2896.933943	1.316243	-0.078547	3.159087
176.822971	2907.956773	1.321247	-0.078601	3.164189
177.156426	2918.981671	1.326252	-0.078666	3.169292
177.455362	2929.982200	1.331257	-0.078725	3.174371
177.949841	2941.008786	1.336262	-0.078820	3.179479
178.071370	2952.030422	1.341266	-0.078846	3.184528
178.625804	2963.053203	1.346271	-0.078953	3.189626
178.714382	2974.064309	1.351276	-0.078972	3.194649
179.112513	2985.072755	1.356280	-0.079049	3.199704
179.420200	2996.101052	1.361285	-0.079110	3.204748
179.903481	3007.102565	1.366290	-0.079203	3.209795
179.917187	3018.153679	1.371295	-0.079209	3.214795
180.141425	3029.139913	1.376299	-0.079253	3.219785
180.421777	3040.157072	1.381304	-0.079309	3.224788
180.865318	3051.171780	1.386309	-0.079395	3.229804
181.169281	3062.184374	1.391314	-0.079454	3.234793
181.610871	3073.219348	1.396318	-0.079540	3.239802
181.754715	3084.233782	1.401323	-0.079570	3.244756
182.056728	3095.266691	1.406328	-0.079629	3.249730
182.227317	3106.266284	1.411332	-0.079664	3.254666
182.573841	3117.276595	1.416337	-0.079732	3.259621
182.997477	3128.284097	1.421342	-0.079814	3.264576
183.352370	3139.315717	1.426347	-0.079883	3.269527
183.536065	3150.332272	1.431351	-0.079920	3.274441
183.625934	3161.369722	1.436356	-0.079940	3.279345
183.978345	3172.351946	1.441361	-0.080009	3.284251
184.490893	3183.378257	1.446366	-0.080108	3.289189
184.673030	3194.412778	1.451370	-0.080145	3.294081
184.936374	3205.414628	1.456375	-0.080197	3.298962
185.274737	3216.403975	1.461380	-0.080263	3.303840
185.718539	3227.456866	1.466384	-0.080349	3.308751
185.969702	3238.450037	1.471389	-0.080399	3.313605
186.338106	3249.487092	1.476394	-0.080471	3.318485
186.409096	3260.508955	1.481399	-0.080487	3.323315
186.783923	3271.525670	1.486403	-0.080560	3.328173
186.927856	3282.531450	1.491408	-0.080589	3.332990
187.410061	3293.541371	1.496413	-0.080683	3.337844
187.620587	3304.556480	1.501417	-0.080725	3.342660
188.058073	3315.588010	1.506422	-0.080810	3.347503
188.242369	3326.602467	1.511427	-0.080847	3.352301
188.585017	3337.615226	1.516432	-0.080914	3.357111
188.720941	3348.641989	1.521436	-0.080942	3.361895
189.145648	3359.645830	1.526441	-0.081025	3.366697
189.269724	3370.667869	1.531446	-0.081051	3.371463
189.603418	3381.668190	1.536451	-0.081116	3.376239
189.685092	3392.710323	1.541455	-0.081134	3.380996
190.106515	3403.700418	1.546460	-0.081216	3.385764
190.453077	3414.741085	1.551465	-0.081284	3.390538
190.848316	3425.735225	1.556469	-0.081361	3.395292
191.000015	3436.766712	1.561474	-0.081392	3.400025
191.452952	3447.771905	1.566479	-0.081479	3.404777
191.598234	3458.819499	1.571484	-0.081509	3.409503
191.909533	3469.789652	1.576488	-0.081571	3.414209
192.015023	3480.869618	1.581493	-0.081593	3.418932
192.211168	3491.828841	1.586498	-0.081633	3.423607
192.523193	3502.879599	1.591503	-0.081694	3.428328
192.803561	3513.864578	1.596507	-0.081749	3.433011
193.187613	3524.884315	1.601512	-0.081824	3.437714
193.466324	3535.904080	1.606517	-0.081879	3.442399
193.827637	3546.936436	1.611521	-0.081950	3.447092
194.014872	3557.930289	1.616526	-0.081987	3.451742
194.193868	3568.981529	1.621531	-0.082024	3.456409
194.441483	3579.964351	1.626536	-0.082073	3.461049
194.704041	3590.990094	1.631540	-0.082125	3.465702
194.950204	3602.009274	1.636545	-0.082174	3.470345
195.440531	3613.010393	1.641550	-0.082269	3.475001
195.504701	3624.058436	1.646555	-0.082283	3.479622
195.785349	3635.068237	1.651559	-0.082339	3.484246
196.020640	3646.071519	1.656564	-0.082386	3.488856
196.261815	3657.087975	1.661569	-0.082434	3.493465
196.554899	3668.071267	1.666573	-0.082491	3.498061
196.960855	3679.119226	1.671578	-0.082570	3.502690
197.268462	3690.148514	1.676583	-0.082631	3.507294
197.305662	3701.165380	1.681588	-0.082640	3.511857
197.721273	3712.147176	1.686592	-0.082721	3.516441
198.110834	3723.168896	1.691597	-0.082797	3.521033
198.407490	3734.202397	1.696602	-0.082855	3.525613
198.662143	3745.249704	1.701606	-0.082906	3.530188
198.761321	3756.227299	1.706611	-0.082927	3.534712
199.007156	3767.258729	1.711616	-0.082976	3.539268
199.334780	3778.249092	1.716621	-0.083040	3.543810
199.691865	3789.294011	1.721625	-0.083110	3.548372
199.929177	3800.283235	1.726630	-0.083157	3.552892
199.994564	3811.335031	1.731635	-0.083172	3.557413
200.333497	3822.305523	1.736640	-0.083239	3.561925
200.534080	3833.349465	1.741644	-0.083279	3.566446
200.694166	3844.349318	1.746649	-0.083312	3.570939
201.099436	3855.365409	1.751654	-0.083390	3.575459
201.496199	3866.366519	1.756658	-0.083468	3.579966
201.790626	3877.415268	1.761663	-0.083526	3.584476
202.032903	3888.424159	1.766668	-0.083574	3.588959
202.277291	3899.448792	1.771673	-0.083622	3.593443
202.609858	3910.476395	1.776677	-0.083688	3.597931
202.703086	3921.470748	1.781682	-0.083708	3.602375
202.846284	3932.501982	1.786687	-0.083737	3.606833
202.969347	3943.503401	1.791692	-0.083763	3.611272
203.266062	3954.513012	1.796696	-0.083822	3.615727
203.404014	3965.539453	1.801701	-0.083850	3.620167
203.630385	3976.545330	1.806706	-0.083895	3.624602
203.963537	3987.562518	1.811710	-0.083961	3.629047
204.295924	3998.569495	1.816715	-0.084026	3.633483
204.467673	4009.595673	1.821720	-0.084061	3.637904
204.987662	4020.598035	1.826725	-0.084161	3.642347
205.382154	4031.625251	1.831729	-0.084238	3.646781
205.808212	4042.610076	1.836734	-0.084320	3.651196
205.933879	4053.687186	1.841739	-0.084347	3.655610
206.271155	4064.653222	1.846744	-0.084413	3.659998
206.480982	4075.705397	1.851748	-0.084455	3.664401
206.617103	4086.701124	1.856753	-0.084483	3.668768
206.723130	4097.768473	1.861758	-0.084506	3.673156
206.925607	4108.795576	1.866762	-0.084546	3.677532
207.195654	4119.800216	1.871767	-0.084600	3.681902
207.484881	4130.810015	1.876772	-0.084657	3.686270
207.634908	4141.827969	1.881777	-0.084688	3.690621
208.000418	4152.832622	1.886781	-0.084759	3.694985
208.388504	4163.828849	1.891786	-0.084835	3.699342
208.667999	4174.884782	1.896791	-0.084890	3.703706
208.972352	4185.898139	1.901795	-0.084950	3.708051
209.324570	4196.888379	1.906800	-0.085018	3.712387
209.612869	4207.931431	1.911805	-0.085075	3.716731
209.912379	4218.910343	1.916810	-0.085134	3.721047
210.182040	4229.971634	1.921814	-0.085187	3.725386
210.381355	4240.952629	1.926819	-0.085228	3.729682
210.582140	4252.000692	1.931824	-0.085268	3.734000
210.857579	4262.978262	1.936829	-0.085322	3.738292
210.949367	4274.039051	1.941833	-0.085342	3.742594
211.345295	4285.042928	1.946838	-0.085419	3.746898
211.447960	4296.056456	1.951843	-0.085441	3.751173
211.684081	4307.042121	1.956847	-0.085488	3.755445
212.012121	4318.072059	1.961852	-0.085553	3.759738
