Wed Nov 23 18:47:16 2022

Number of Points = 2200
Depth (nm)	Load (µN)	Time (s)	Depth (V)	Load (V)
-1.561584	0.993705	0.000000	0.032642	0.963767
0.000000	7.314936	0.005005	0.032348	0.974271
1.437954	16.493141	0.010009	0.032076	0.988865
2.586436	27.144107	0.015014	0.031857	1.005251
3.815497	38.168343	0.020019	0.031624	1.021955
4.660881	49.377223	0.025024	0.031463	1.038450
5.736311	60.500608	0.030028	0.031258	1.054686
6.412813	71.742096	0.035033	0.031128	1.070635
6.971594	82.937588	0.040038	0.031021	1.086228
7.697958	94.032028	0.045043	0.030882	1.101546
8.362397	105.184763	0.050047	0.030754	1.116701
8.916248	116.313911	0.055052	0.030648	1.131569
9.742596	127.429493	0.060057	0.030490	1.146355
10.262120	138.576490	0.065061	0.030390	1.160849
10.958029	149.670054	0.070066	0.030256	1.175178
14.060740	159.886852	0.075071	0.029672	1.189342
24.563619	170.091117	0.080076	0.027698	1.206639
25.190793	182.670261	0.085080	0.027577	1.222188
26.081982	194.028757	0.090085	0.027407	1.236201
27.002707	205.148759	0.095090	0.027232	1.249787
28.175187	216.230796	0.100094	0.027009	1.263290
29.085862	227.341939	0.105099	0.026836	1.276573
30.051235	238.443269	0.110104	0.026652	1.289729
30.914934	249.583276	0.115109	0.026487	1.302754
32.077793	260.608245	0.120113	0.026266	1.315643
32.778644	271.748819	0.125118	0.026132	1.328348
34.066040	282.696817	0.130123	0.025887	1.340954
35.129990	293.841027	0.135128	0.025685	1.353568
36.233472	304.934416	0.140132	0.025475	1.366025
37.030302	316.017936	0.145137	0.025323	1.378239
38.309875	327.043393	0.150142	0.025080	1.390470
39.353523	338.127422	0.155146	0.024882	1.402565
40.724264	349.175162	0.160151	0.024622	1.414641
41.152660	360.377723	0.165156	0.024538	1.426422
42.148922	371.387637	0.170161	0.024349	1.438119
43.150096	382.408124	0.175165	0.024158	1.449734
44.202769	393.508840	0.180170	0.023958	1.461356
44.794150	404.626985	0.185175	0.023844	1.472736
45.612372	415.673868	0.190180	0.023688	1.484039
46.373715	426.708797	0.195184	0.023542	1.495224
47.590414	437.734183	0.200189	0.023311	1.506477
48.145987	448.869039	0.205194	0.023204	1.517521
49.274229	459.855396	0.210198	0.022990	1.528540
49.835091	471.001236	0.215203	0.022882	1.539437
50.983001	481.957034	0.220208	0.022664	1.550277
51.570645	493.109342	0.225213	0.022551	1.561037
52.628799	504.084649	0.230217	0.022349	1.571715
53.611219	515.152306	0.235222	0.022162	1.582381
54.370770	526.215825	0.240227	0.022017	1.592897
55.019043	537.306741	0.245232	0.021893	1.603333
56.092742	548.283665	0.250236	0.021689	1.613736
56.828071	559.409984	0.255241	0.021548	1.624097
57.587975	570.442212	0.260246	0.021402	1.634316
58.424308	581.457237	0.265250	0.021243	1.644479
59.315704	592.520857	0.270255	0.021073	1.654641
60.020430	603.581310	0.275260	0.020938	1.664678
61.007345	614.611504	0.280265	0.020750	1.674716
61.855059	625.640597	0.285269	0.020588	1.684650
62.705125	636.719296	0.290274	0.020426	1.694569
63.412648	647.778821	0.295279	0.020290	1.704370
64.004772	658.835608	0.300283	0.020177	1.714077
64.674920	669.868484	0.305288	0.020048	1.723732
65.347171	680.922235	0.310293	0.019919	1.733351
66.008282	691.957603	0.315298	0.019792	1.742898
66.912479	702.953568	0.320302	0.019620	1.752432
67.617134	714.038752	0.325307	0.019485	1.761930
68.454244	725.065556	0.330312	0.019325	1.771366
68.899437	736.147885	0.335317	0.019239	1.780684
69.902921	747.112210	0.340321	0.019048	1.790017
70.839875	758.157932	0.345326	0.018869	1.799350
71.540938	769.251585	0.350331	0.018735	1.808605
72.065376	780.305206	0.355335	0.018634	1.817730
72.915830	791.286574	0.360340	0.018472	1.826843
73.523687	802.374914	0.365345	0.018355	1.835928
74.315480	813.370057	0.370350	0.018204	1.844945
75.190066	824.405720	0.375354	0.018037	1.853973
75.619072	835.520682	0.380359	0.017954	1.862897
76.350078	846.499882	0.385364	0.017814	1.871754
76.933729	857.570001	0.390369	0.017701	1.880600
77.675932	868.550641	0.395373	0.017559	1.889377
78.419813	879.628754	0.400378	0.017417	1.898190
79.146970	890.639491	0.405383	0.017278	1.906905
79.677611	901.705520	0.410387	0.017176	1.915570
80.234265	912.745276	0.415392	0.017068	1.924183
80.890339	923.765601	0.420397	0.016943	1.932768
81.551242	934.790243	0.425402	0.016816	1.941320
82.402212	945.809268	0.430406	0.016653	1.949880
83.021776	956.851878	0.435411	0.016534	1.958359
83.789410	967.877071	0.440416	0.016388	1.966826
84.326222	978.950925	0.445421	0.016284	1.975234
85.241098	989.917812	0.450425	0.016110	1.983624
85.858952	1000.999777	0.455430	0.015991	1.991987
86.407582	1012.052492	0.460435	0.015885	2.000276
86.823034	1023.100493	0.465439	0.015805	2.008493
87.496634	1034.092764	0.470444	0.015676	2.016701
88.204447	1045.133618	0.475449	0.015540	2.024919
89.000873	1056.159290	0.480454	0.015388	2.033114
89.380129	1067.233047	0.485458	0.015314	2.041208
90.064164	1078.227264	0.490463	0.015183	2.049288
90.671945	1089.259409	0.495468	0.015066	2.057344
91.204578	1100.313971	0.500472	0.014963	2.065366
91.805567	1111.321677	0.505477	0.014848	2.073340
92.517879	1122.346824	0.510482	0.014712	2.081322
93.211812	1133.381627	0.515487	0.014579	2.089276
93.484824	1144.464158	0.520491	0.014525	2.097133
94.002470	1155.459186	0.525496	0.014425	2.104957
94.524903	1166.480367	0.530501	0.014324	2.112771
95.054937	1177.494422	0.535506	0.014222	2.120553
95.928325	1188.512680	0.540510	0.014055	2.128390
96.604323	1199.544836	0.545515	0.013926	2.136161
97.303473	1210.575546	0.550520	0.013792	2.143909
97.851540	1221.626334	0.555524	0.013686	2.151606
98.518685	1232.639335	0.560529	0.013558	2.159278
99.110981	1243.669561	0.565534	0.013444	2.166917
99.791487	1254.722644	0.570539	0.013314	2.174565
100.397761	1265.710384	0.575543	0.013198	2.182124
101.230644	1276.744196	0.580548	0.013039	2.189740
101.639675	1287.801469	0.585553	0.012959	2.197248
102.300502	1298.819663	0.590558	0.012832	2.204762
102.842739	1309.840746	0.595562	0.012728	2.212225
103.598314	1320.853874	0.600567	0.012583	2.219705
103.949774	1331.916364	0.605572	0.012515	2.227103
104.498431	1342.923443	0.610576	0.012409	2.234483
104.911398	1353.972982	0.615581	0.012329	2.241836
105.548079	1364.972544	0.620586	0.012207	2.249182
106.228540	1376.006221	0.625591	0.012076	2.256536
106.814479	1387.041920	0.630595	0.011963	2.263846
107.042542	1398.075204	0.635600	0.011918	2.271053
107.581771	1409.080529	0.640605	0.011814	2.278286
108.153879	1420.101782	0.645610	0.011704	2.285514
108.810907	1431.117890	0.650614	0.011578	2.292733
109.601376	1442.135816	0.655619	0.011427	2.299959
109.846304	1453.214755	0.660624	0.011378	2.307086
110.268669	1464.244248	0.665628	0.011296	2.314196
110.767463	1475.237120	0.670633	0.011200	2.321277
111.287332	1486.241556	0.675638	0.011100	2.328349
112.292488	1497.249051	0.680643	0.010908	2.335502
112.930217	1508.291731	0.685647	0.010786	2.342578
113.429902	1519.352492	0.690652	0.010689	2.349616
113.711978	1530.388720	0.695657	0.010634	2.356572
114.226958	1541.374428	0.700661	0.010534	2.363524
114.910700	1552.388582	0.705666	0.010403	2.370508
115.465536	1563.437242	0.710671	0.010297	2.377466
115.850855	1574.481448	0.715676	0.010221	2.384366
116.507986	1585.468882	0.720680	0.010095	2.391267
116.795691	1596.529076	0.725685	0.010039	2.398117
117.507621	1607.503914	0.730690	0.009902	2.404981
117.904399	1618.582085	0.735695	0.009825	2.411825
118.516597	1629.571744	0.740699	0.009708	2.418638
118.726906	1640.638257	0.745704	0.009665	2.425399
119.113896	1651.632839	0.750709	0.009590	2.432133
119.612969	1662.650742	0.755713	0.009494	2.438884
120.401755	1673.629720	0.760718	0.009343	2.445649
120.918460	1684.704319	0.765723	0.009243	2.452400
121.501877	1695.715308	0.770728	0.009131	2.459107
121.912976	1706.750165	0.775732	0.009051	2.465777
122.364740	1717.774945	0.780737	0.008964	2.472430
122.692432	1728.791066	0.785742	0.008900	2.479036
123.317799	1739.806850	0.790747	0.008779	2.485681
123.759128	1750.844935	0.795751	0.008694	2.492287
124.349278	1761.856065	0.800756	0.008580	2.498887
124.676059	1772.877406	0.805761	0.008516	2.505426
125.288369	1783.900133	0.810765	0.008399	2.512002
125.744877	1794.920808	0.815770	0.008310	2.518531
126.435886	1805.932817	0.820775	0.008178	2.525081
126.662145	1817.005815	0.825780	0.008133	2.531563
127.207244	1827.988209	0.830784	0.008028	2.538035
127.541149	1839.016611	0.835789	0.007962	2.544477
128.194139	1850.004800	0.840794	0.007837	2.550940
128.649711	1861.072166	0.845799	0.007749	2.557395
129.226529	1872.078147	0.850803	0.007638	2.563820
129.768154	1883.094409	0.855808	0.007534	2.570229
130.154252	1894.191984	0.860813	0.007458	2.576639
130.565252	1905.155860	0.865817	0.007379	2.582962
130.998617	1916.160884	0.870822	0.007295	2.589297
131.453539	1927.174965	0.875827	0.007206	2.595625
132.280537	1938.176269	0.880832	0.007049	2.601998
132.697368	1949.245406	0.885836	0.006968	2.608319
133.229580	1960.241731	0.890841	0.006865	2.614604
133.560027	1971.277443	0.895846	0.006800	2.620860
134.180321	1982.273592	0.900850	0.006681	2.627131
134.613235	1993.323113	0.905855	0.006597	2.633383
135.082611	2004.334590	0.910860	0.006506	2.639606
135.489667	2015.356576	0.915865	0.006427	2.645808
136.124459	2026.376686	0.920869	0.006305	2.652035
136.395840	2037.420294	0.925874	0.006252	2.658197
136.979751	2048.382073	0.930879	0.006140	2.664353
137.443171	2059.419586	0.935884	0.006050	2.670516
137.987788	2070.434709	0.940888	0.005945	2.676666
138.471802	2081.465463	0.945893	0.005851	2.682801
138.962105	2092.467560	0.950898	0.005757	2.688906
139.293949	2103.510520	0.955902	0.005692	2.694992
139.999628	2114.496857	0.960907	0.005557	2.701098
140.564181	2125.523064	0.965912	0.005448	2.707188
141.116399	2136.567198	0.970917	0.005342	2.713271
141.359332	2147.589339	0.975921	0.005293	2.719276
141.814854	2158.606255	0.980926	0.005205	2.725301
142.196680	2169.640575	0.985931	0.005131	2.731309
142.545571	2180.642583	0.990936	0.005062	2.737281
142.958006	2191.649689	0.995940	0.004982	2.743253
143.458984	2202.673962	1.000945	0.004886	2.749237
143.805606	2213.726218	1.005950	0.004818	2.755196
144.241612	2224.717355	1.010954	0.004733	2.761125
144.580821	2235.747678	1.015959	0.004667	2.767045
145.138508	2246.762603	1.020964	0.004560	2.772981
145.561689	2257.760017	1.025969	0.004477	2.778873
145.970314	2268.807735	1.030973	0.004398	2.784776
146.498036	2279.828037	1.035978	0.004296	2.790671
147.151854	2290.811623	1.040983	0.004171	2.796556
147.619980	2301.863858	1.045988	0.004080	2.802433
148.260010	2312.852404	1.050992	0.003957	2.808293
149.010268	2323.877680	1.055997	0.003814	2.814177
149.431917	2334.916317	1.061002	0.003732	2.820003
149.760656	2345.960281	1.066006	0.003668	2.825804
150.388050	2356.940219	1.071011	0.003547	2.831608
150.805261	2367.960284	1.076016	0.003466	2.837387
151.526166	2378.980084	1.081021	0.003328	2.843203
152.037984	2390.007414	1.086025	0.003229	2.848977
152.264415	2401.056666	1.091030	0.003184	2.854706
152.528033	2412.072546	1.096035	0.003132	2.860411
152.955761	2423.057123	1.101039	0.003049	2.866115
153.570710	2434.089453	1.106044	0.002931	2.871861
154.019076	2445.099851	1.111049	0.002844	2.877559
154.439629	2456.123383	1.116054	0.002762	2.883247
155.019096	2467.145570	1.121058	0.002651	2.888948
155.259078	2478.206998	1.126063	0.002603	2.894605
155.754616	2489.167041	1.131068	0.002507	2.900239
156.407278	2500.182394	1.136073	0.002382	2.905914
156.773841	2511.245685	1.141077	0.002311	2.911558
157.209220	2522.229250	1.146082	0.002226	2.917161
157.444902	2533.286095	1.151087	0.002179	2.922760
157.655364	2544.273780	1.156091	0.002137	2.928309
158.118529	2555.295335	1.161096	0.002048	2.933904
158.603809	2566.304868	1.166101	0.001954	2.939484
159.188432	2577.330082	1.171106	0.001841	2.945078
159.502587	2588.386381	1.176110	0.001780	2.950634
159.657505	2599.386571	1.181115	0.001748	2.956129
160.051803	2610.392080	1.186120	0.001671	2.961652
160.674706	2621.398498	1.191125	0.001552	2.967199
161.131531	2632.413326	1.196129	0.001463	2.972715
161.673959	2643.432105	1.201134	0.001359	2.978235
162.181870	2654.465255	1.206139	0.001261	2.983747
162.592802	2665.485762	1.211143	0.001181	2.989228
162.901559	2676.503038	1.216148	0.001120	2.994682
163.391815	2687.516668	1.221153	0.001025	3.000151
163.937644	2698.529747	1.226158	0.000920	3.005618
164.190608	2709.598455	1.231162	0.000870	3.011059
164.393421	2720.562757	1.236167	0.000829	3.016432
164.829591	2731.582770	1.241172	0.000745	3.021857
165.124211	2742.617907	1.246177	0.000687	3.027258
165.663033	2753.626342	1.251181	0.000583	3.032672
165.891014	2764.662855	1.256186	0.000537	3.038045
166.436908	2775.663546	1.261191	0.000432	3.043437
166.766373	2786.702355	1.266195	0.000368	3.048807
167.168256	2797.691975	1.271200	0.000289	3.054153
167.571532	2808.712590	1.276205	0.000211	3.059506
168.277587	2819.712257	1.281210	0.000076	3.064882
168.825788	2830.754851	1.286214	-0.000030	3.070246
169.031241	2841.816631	1.291219	-0.000071	3.075562
169.104073	2852.787185	1.296224	-0.000087	3.080806
169.595937	2863.810917	1.301228	-0.000182	3.086126
170.001303	2874.813474	1.306233	-0.000261	3.091414
170.400427	2885.840452	1.311238	-0.000339	3.096703
170.835058	2896.851808	1.316243	-0.000423	3.101981
171.296957	2907.900093	1.321247	-0.000513	3.107271
171.621348	2918.887885	1.326252	-0.000576	3.112505
172.093093	2929.921300	1.331257	-0.000667	3.117771
172.508023	2940.928877	1.336262	-0.000748	3.123009
173.077951	2951.949634	1.341266	-0.000858	3.128265
173.227061	2962.985448	1.346271	-0.000888	3.133461
173.604786	2973.994557	1.351276	-0.000962	3.138668
173.886390	2984.996436	1.356280	-0.001017	3.143849
174.620717	2995.998429	1.361285	-0.001158	3.149084
175.002691	3007.019506	1.366290	-0.001232	3.154270
175.280384	3018.086308	1.371295	-0.001287	3.159455
175.723581	3029.067988	1.376299	-0.001373	3.164615
176.047686	3040.117692	1.381304	-0.001437	3.169781
176.271817	3051.094114	1.386309	-0.001481	3.174892
176.814116	3062.120066	1.391314	-0.001586	3.180059
177.218958	3073.150399	1.396318	-0.001665	3.185202
177.691786	3084.151375	1.401323	-0.001756	3.190332
178.420122	3095.117983	1.406328	-0.001895	3.195472
179.019313	3106.183415	1.411332	-0.002011	3.200632
179.612745	3117.191967	1.416337	-0.002125	3.205757
180.125740	3128.238666	1.421342	-0.002224	3.210880
180.362049	3139.231871	1.426347	-0.002271	3.215933
180.670304	3150.287550	1.431351	-0.002331	3.221017
180.882801	3161.288536	1.436356	-0.002374	3.226055
181.291287	3172.274374	1.441361	-0.002453	3.231104
181.708717	3183.305517	1.446366	-0.002534	3.236166
182.243183	3194.327516	1.451370	-0.002637	3.241232
182.551059	3205.344888	1.456375	-0.002698	3.246258
182.943235	3216.365077	1.461380	-0.002774	3.251289
183.190458	3227.395922	1.466384	-0.002823	3.256297
183.606208	3238.394916	1.471389	-0.002904	3.261305
183.924722	3249.406485	1.476394	-0.002967	3.266299
184.452367	3260.430955	1.481399	-0.003068	3.271318
184.906565	3271.448625	1.486403	-0.003156	3.276316
185.153428	3282.487054	1.491408	-0.003205	3.281289
185.406514	3293.485485	1.496413	-0.003255	3.286238
185.916955	3304.492385	1.501417	-0.003354	3.291216
186.332367	3315.509212	1.506422	-0.003435	3.296178
186.628820	3326.544651	1.511427	-0.003493	3.301126
187.007811	3337.548140	1.516432	-0.003567	3.306063
187.276976	3348.571513	1.521436	-0.003620	3.310987
187.708903	3359.560396	1.526441	-0.003704	3.315910
188.177786	3370.623364	1.531446	-0.003795	3.320862
188.500930	3381.600314	1.536451	-0.003858	3.325750
189.001459	3392.644813	1.541455	-0.003955	3.330683
189.317295	3403.644202	1.546460	-0.004017	3.335566
189.502339	3414.667856	1.551465	-0.004054	3.340436
189.787905	3425.694342	1.556469	-0.004110	3.345313
190.396159	3436.690367	1.561474	-0.004227	3.350209
190.887503	3447.708899	1.566479	-0.004322	3.355093
191.124357	3458.764149	1.571484	-0.004369	3.359954
191.518652	3469.741981	1.576488	-0.004446	3.364794
192.173388	3480.756028	1.581493	-0.004572	3.369675
192.842317	3491.756861	1.586498	-0.004700	3.374544
193.415430	3502.797509	1.591503	-0.004810	3.379412
193.862566	3513.807844	1.596507	-0.004897	3.384244
194.080221	3524.861067	1.601512	-0.004940	3.389060
194.514314	3535.822076	1.606517	-0.005024	3.393856
194.944178	3546.874665	1.611521	-0.005108	3.398683
195.495232	3557.840794	1.616526	-0.005214	3.403481
195.902806	3568.914396	1.621531	-0.005293	3.408301
196.170492	3579.907946	1.626536	-0.005346	3.413063
196.512917	3590.944318	1.631540	-0.005413	3.417846
196.816392	3601.940307	1.636545	-0.005473	3.422600
197.341734	3612.961765	1.641550	-0.005574	3.427384
197.926545	3623.960737	1.646555	-0.005687	3.432159
198.279484	3635.007629	1.651559	-0.005756	3.436921
198.629184	3646.000046	1.656564	-0.005824	3.441652
198.940201	3657.048679	1.661569	-0.005885	3.446396
199.373943	3668.021673	1.666573	-0.005969	3.451115
199.695272	3679.079343	1.671578	-0.006032	3.455851
199.998298	3690.058863	1.676583	-0.006092	3.460545
200.354453	3701.121536	1.681588	-0.006161	3.465274
200.590056	3712.100645	1.686592	-0.006208	3.469947
200.801313	3723.154698	1.691597	-0.006251	3.474642
201.189310	3734.120621	1.696602	-0.006326	3.479315
201.711779	3745.144112	1.701606	-0.006427	3.484020
202.345485	3756.179267	1.706611	-0.006548	3.488737
202.790300	3767.193910	1.711616	-0.006635	3.493418
203.088102	3778.206600	1.716621	-0.006693	3.498074
203.614109	3789.211452	1.721625	-0.006795	3.502747
204.154239	3800.235852	1.726630	-0.006899	3.507423
204.435953	3811.252445	1.731635	-0.006954	3.512060
205.207445	3822.245623	1.736640	-0.007102	3.516737
205.560829	3833.285386	1.741644	-0.007171	3.521379
205.992206	3844.309863	1.746649	-0.007255	3.526018
206.470697	3855.326713	1.751654	-0.007347	3.530652
206.918199	3866.321740	1.756658	-0.007434	3.535268
207.325498	3877.354489	1.761663	-0.007513	3.539889
207.602410	3888.373174	1.766668	-0.007568	3.544483
207.983815	3899.403865	1.771673	-0.007642	3.549088
208.290674	3910.386915	1.776677	-0.007702	3.553659
208.822904	3921.411480	1.781682	-0.007805	3.558266
209.387597	3932.419336	1.786687	-0.007913	3.562864
209.751419	3943.469392	1.791692	-0.007984	3.567451
209.920412	3954.449517	1.796696	-0.008019	3.571982
210.343000	3965.475381	1.801701	-0.008101	3.576553
210.796790	3976.464691	1.806706	-0.008189	3.581107
211.117356	3987.526987	1.811710	-0.008252	3.585671
211.544311	3998.504136	1.816715	-0.008335	3.590205
211.792641	4009.577729	1.821720	-0.008384	3.594754
212.224931	4020.542909	1.826725	-0.008468	3.599272
212.576746	4031.592819	1.831729	-0.008536	3.603810
212.865905	4042.604551	1.836734	-0.008593	3.608321
213.267970	4053.621804	1.841739	-0.008672	3.612840
213.658055	4064.603274	1.846744	-0.008748	3.617337
213.912690	4075.641677	1.851748	-0.008798	3.621838
214.010138	4086.656242	1.856753	-0.008819	3.626306
214.285883	4097.702918	1.861758	-0.008874	3.630801
214.819173	4108.714691	1.866762	-0.008976	3.635303
215.082634	4119.748427	1.871767	-0.009028	3.639780
215.522184	4130.750241	1.876772	-0.009114	3.644258
215.806842	4141.785109	1.881777	-0.009170	3.648726
216.603390	4152.776583	1.886781	-0.009322	3.653226
217.060830	4163.825685	1.891786	-0.009411	3.657707
217.532061	4174.793128	1.896791	-0.009502	3.662152
217.917212	4185.858598	1.901795	-0.009577	3.666621
218.268204	4196.839814	1.906800	-0.009645	3.671047
218.764403	4207.873203	1.911805	-0.009741	3.675504
219.158952	4218.875761	1.916810	-0.009818	3.679933
219.810774	4229.884226	1.921814	-0.009943	3.684385
220.052879	4240.922567	1.926819	-0.009991	3.688801
220.471483	4251.933778	1.931824	-0.010072	3.693219
220.740130	4262.955142	1.936829	-0.010125	3.697621
221.028126	4273.987201	1.941833	-0.010182	3.702023
221.512131	4284.974540	1.946838	-0.010276	3.706423
221.867302	4295.982778	1.951843	-0.010345	3.710812
222.269373	4306.995349	1.956847	-0.010423	3.715202
222.841168	4318.019255	1.961852	-0.010533	3.719609
223.123770	4329.057924	1.966857	-0.010589	3.723987
223.322356	4340.066482	1.971862	-0.010629	3.728340
223.654812	4351.064598	1.976866	-0.010694	3.732696
223.943642	4362.111787	1.981871	-0.010751	3.737063
224.272464	4373.088546	1.986876	-0.010816	3.741401
224.641751	4384.124529	1.991881	-0.010888	3.745760
