Wed Nov 23 19:06:18 2022

Number of Points = 2200
Depth (nm)	Load (µN)	Time (s)	Depth (V)	Load (V)
-1.490957	0.821292	0.000000	0.063733	0.863849
0.000000	6.762442	0.005005	0.063451	0.874919
1.591945	15.569377	0.010009	0.063150	0.890690
3.162238	26.028756	0.015014	0.062853	0.908870
4.187402	37.152240	0.020019	0.062658	0.927429
5.341603	48.305899	0.025024	0.062439	0.945745
6.336305	59.541793	0.030028	0.062249	0.963748
7.241496	70.780552	0.035033	0.062077	0.981374
8.014431	82.004374	0.040038	0.061929	0.998593
8.872111	93.174439	0.045043	0.061765	1.015487
14.915957	103.087785	0.050047	0.060629	1.033052
17.453116	114.866223	0.055052	0.060150	1.051120
20.763353	125.996892	0.060057	0.059526	1.068379
23.107756	137.371524	0.065061	0.059083	1.085208
25.033784	148.667002	0.070066	0.058719	1.101463
26.770206	159.870911	0.075071	0.058390	1.117267
28.370338	171.063996	0.080076	0.058087	1.132770
30.356468	182.126129	0.085080	0.057712	1.148076
32.036417	193.295107	0.090085	0.057394	1.163171
34.003110	204.370393	0.095090	0.057022	1.178087
35.984326	215.472391	0.100094	0.056648	1.192855
37.571210	226.697002	0.105099	0.056347	1.207413
39.281358	237.774932	0.110104	0.056023	1.221674
41.002478	248.891613	0.115109	0.055698	1.235821
42.698065	259.991263	0.120113	0.055377	1.249775
44.284551	271.123736	0.125118	0.055076	1.263565
45.849040	282.218471	0.130123	0.054780	1.277152
47.085289	293.410834	0.135128	0.054545	1.290570
48.709455	304.436827	0.140132	0.054238	1.303821
50.249149	315.526583	0.145137	0.053946	1.316974
51.720066	326.608150	0.150142	0.053667	1.329960
53.050212	337.705269	0.155146	0.053415	1.342779
54.420103	348.807211	0.160151	0.053155	1.355497
55.385709	359.968281	0.165156	0.052971	1.368002
57.052560	370.897657	0.170161	0.052656	1.380417
58.209148	382.074526	0.175165	0.052436	1.392787
59.528513	393.126494	0.180170	0.052186	1.404977
60.598855	404.234320	0.185175	0.051982	1.417026
62.049833	415.236055	0.190180	0.051707	1.429006
63.538897	426.296525	0.195184	0.051425	1.440960
64.489610	437.475226	0.200189	0.051244	1.452736
65.684475	448.487395	0.205194	0.051017	1.464339
67.252082	459.485323	0.210198	0.050720	1.475969
68.291479	470.657822	0.215203	0.050522	1.487493
69.453214	481.677023	0.220208	0.050302	1.498819
70.603642	492.754251	0.225213	0.050083	1.510113
71.738181	503.835144	0.230217	0.049867	1.521320
72.703777	514.886098	0.235222	0.049683	1.532357
74.156397	525.884293	0.240227	0.049408	1.543431
75.197475	537.005284	0.245232	0.049210	1.554402
76.126999	548.066279	0.250236	0.049033	1.565202
77.082200	559.153755	0.255241	0.048851	1.575960
78.227095	570.148397	0.260246	0.048633	1.586621
79.223303	581.248073	0.265250	0.048444	1.597259
79.978087	592.298993	0.270255	0.048299	1.607702
81.084179	603.344984	0.275260	0.048089	1.618187
82.178853	614.374437	0.280265	0.047881	1.628585
83.279658	625.427553	0.285269	0.047672	1.638940
84.416890	636.457293	0.290274	0.047456	1.649220
85.447543	647.518916	0.295279	0.047259	1.659430
86.618640	658.555422	0.300283	0.047037	1.669599
87.703780	669.619819	0.305288	0.046831	1.679704
88.939236	680.644602	0.310293	0.046596	1.689760
89.794731	691.756449	0.315298	0.046433	1.699714
90.855228	702.739398	0.320302	0.046231	1.709562
91.863696	713.827691	0.325307	0.046039	1.719427
92.802658	724.868539	0.330312	0.045860	1.729174
93.829768	735.916092	0.335317	0.045665	1.738897
94.888125	746.925773	0.340321	0.045463	1.748544
95.946299	757.975153	0.345326	0.045262	1.758170
96.990061	769.031877	0.350331	0.045063	1.767746
97.992146	780.090828	0.355335	0.044873	1.777258
98.664026	791.160877	0.360340	0.044744	1.786633
99.553012	802.168781	0.365345	0.044574	1.795971
100.273814	813.241859	0.370350	0.044436	1.805264
101.115507	824.273509	0.375354	0.044276	1.814511
101.903732	835.297669	0.380359	0.044125	1.823689
102.886030	846.320433	0.385364	0.043938	1.832874
103.761078	857.370290	0.390369	0.043771	1.842004
104.853456	868.387014	0.395373	0.043563	1.851124
105.683664	879.472858	0.400378	0.043405	1.860180
106.305077	890.527217	0.405383	0.043286	1.869110
107.185080	901.506818	0.410387	0.043118	1.878009
108.358977	912.529836	0.415392	0.042895	1.886979
109.220416	923.609643	0.420397	0.042730	1.895867
110.011565	934.644291	0.425402	0.042579	1.904658
111.000393	945.643183	0.430406	0.042391	1.913434
111.807178	956.728782	0.435411	0.042237	1.922188
112.679893	967.734875	0.440416	0.042070	1.930858
113.625993	978.783733	0.445421	0.041890	1.939541
114.384695	989.801288	0.450425	0.041745	1.948112
115.335172	1000.843370	0.455430	0.041564	1.956714
116.301852	1011.860290	0.460435	0.041380	1.965263
117.225122	1022.913061	0.465439	0.041204	1.973790
118.216752	1033.936472	0.470444	0.041015	1.982276
119.007433	1045.011018	0.475449	0.040864	1.990711
119.785350	1056.025770	0.480454	0.040715	1.999064
120.672865	1067.065103	0.485458	0.040546	2.007427
121.805172	1078.064436	0.490463	0.040331	2.015787
122.557152	1089.131942	0.495468	0.040187	2.024067
123.234089	1100.151787	0.500472	0.040057	2.032259
124.608278	1111.128652	0.505477	0.039796	2.040560
125.282926	1122.247852	0.510482	0.039667	2.048757
126.281994	1133.239119	0.515487	0.039477	2.056909
126.991763	1144.300604	0.520491	0.039341	2.065007
127.908014	1155.303829	0.525496	0.039166	2.073083
128.524894	1166.375341	0.530501	0.039048	2.081102
129.577250	1177.341785	0.535506	0.038848	2.089121
130.306629	1188.426503	0.540510	0.038708	2.097115
131.040362	1199.452616	0.545515	0.038568	2.105038
131.783471	1210.485196	0.550520	0.038426	2.112938
132.358362	1221.509891	0.555524	0.038315	2.120763
133.133418	1232.525634	0.560529	0.038167	2.128600
134.087868	1243.552279	0.565534	0.037985	2.136458
134.712033	1254.589942	0.570539	0.037865	2.144216
135.656059	1265.595256	0.575543	0.037685	2.151999
136.384549	1276.654248	0.580548	0.037546	2.159740
137.416758	1287.649543	0.585553	0.037349	2.167480
138.270394	1298.702757	0.590558	0.037186	2.175190
138.970048	1309.755090	0.595562	0.037052	2.182836
139.732403	1320.732899	0.600567	0.036907	2.190420
140.635581	1331.792080	0.605572	0.036734	2.198064
141.397640	1342.796908	0.610576	0.036589	2.205613
142.271591	1353.851538	0.615581	0.036422	2.213194
142.751423	1364.896301	0.620586	0.036329	2.220654
143.453425	1375.903596	0.625591	0.036195	2.228114
144.084503	1386.943055	0.630595	0.036074	2.235554
144.707210	1397.981921	0.635600	0.035954	2.242967
145.535726	1408.970748	0.640605	0.035796	2.250368
146.194465	1420.030459	0.645610	0.035670	2.257753
146.916479	1431.021972	0.650614	0.035531	2.265083
147.703322	1442.069965	0.655619	0.035381	2.272440
148.060491	1453.120104	0.660624	0.035311	2.279682
148.634882	1464.130496	0.665628	0.035201	2.286922
149.184080	1475.170592	0.670633	0.035095	2.294152
149.888896	1486.153863	0.675638	0.034960	2.301356
150.298414	1497.230851	0.680643	0.034880	2.308534
151.067824	1508.201583	0.685647	0.034733	2.315699
151.822849	1519.236670	0.690652	0.034589	2.322879
152.554801	1530.282762	0.695657	0.034449	2.330039
153.420076	1541.252480	0.700661	0.034284	2.337156
154.190111	1552.340237	0.705666	0.034137	2.344306
154.896557	1563.319481	0.710671	0.034001	2.351353
155.460202	1574.394827	0.715676	0.033893	2.358409
155.911147	1585.433183	0.720680	0.033805	2.365397
156.688819	1596.406878	0.725685	0.033657	2.372391
157.087131	1607.465534	0.730690	0.033579	2.379340
157.998159	1618.457046	0.735695	0.033406	2.386331
158.485103	1629.490438	0.740699	0.033312	2.393241
159.225414	1640.526050	0.745704	0.033170	2.400184
159.896982	1651.536153	0.750709	0.033041	2.407076
160.705580	1662.567232	0.755713	0.032887	2.413990
161.019708	1673.609804	0.760718	0.032825	2.420791
161.727477	1684.610881	0.765723	0.032689	2.427627
162.215536	1695.666172	0.770728	0.032595	2.434432
162.793385	1706.646197	0.775732	0.032484	2.441190
163.432453	1717.688762	0.780737	0.032361	2.447979
164.051907	1728.740275	0.785742	0.032242	2.454751
164.291251	1739.755564	0.790747	0.032195	2.461408
164.934596	1750.758355	0.795751	0.032071	2.468118
165.477661	1761.767950	0.800756	0.031967	2.474794
166.148077	1772.814340	0.805761	0.031838	2.481499
166.758117	1783.819105	0.810765	0.031721	2.488149
167.595485	1794.846991	0.815770	0.031561	2.494838
168.233821	1805.863231	0.820775	0.031439	2.501465
168.850749	1816.898786	0.825780	0.031320	2.508081
170.127188	1827.835635	0.830784	0.031078	2.514747
170.935451	1838.924313	0.835789	0.030923	2.521394
171.727070	1849.937776	0.840794	0.030772	2.527977
172.233732	1861.011410	0.845799	0.030674	2.534524
172.975636	1871.992552	0.850803	0.030532	2.541045
173.546563	1883.046643	0.855808	0.030423	2.547559
174.244048	1894.028933	0.860813	0.030289	2.554038
174.786902	1905.089736	0.865817	0.030184	2.560517
175.222192	1916.101236	0.870822	0.030100	2.566931
175.932403	1927.152839	0.875827	0.029964	2.573403
176.348566	1938.179344	0.880832	0.029883	2.579789
176.904731	1949.180240	0.885836	0.029776	2.586171
177.349432	1960.192479	0.890841	0.029690	2.592524
177.765934	1971.227640	0.895846	0.029609	2.598868
178.211375	1982.220106	0.900850	0.029523	2.605178
179.091902	1993.225920	0.905855	0.029355	2.611559
179.696457	2004.270066	0.910860	0.029239	2.617895
180.345278	2015.270402	0.915865	0.029114	2.624200
180.992538	2026.320020	0.920869	0.028990	2.630517
181.440786	2037.343376	0.925874	0.028903	2.636768
181.875110	2048.368277	0.930879	0.028819	2.643002
182.719812	2059.305806	0.935884	0.028658	2.649246
183.277913	2070.386575	0.940888	0.028550	2.655504
183.803569	2081.408168	0.945893	0.028449	2.661708
184.376098	2092.390992	0.950898	0.028339	2.667885
185.637407	2103.367566	0.955902	0.028099	2.674164
186.139823	2114.467702	0.960907	0.028002	2.680364
186.982263	2125.444861	0.965912	0.027842	2.686540
187.769706	2136.500034	0.970917	0.027691	2.692736
188.173577	2147.532762	0.975921	0.027613	2.698839
188.432326	2158.559539	0.980926	0.027561	2.704899
189.125262	2169.551732	0.985931	0.027429	2.711002
189.990230	2180.537737	0.990936	0.027263	2.717116
190.717128	2191.601229	0.995940	0.027124	2.723235
190.989193	2202.652905	1.000945	0.027071	2.729257
191.562601	2213.639118	1.005950	0.026960	2.735281
191.935408	2224.679696	1.010954	0.026888	2.741287
192.440490	2235.690018	1.015959	0.026790	2.747285
193.312288	2246.661247	1.020964	0.026624	2.753311
193.813559	2257.732336	1.025969	0.026527	2.759315
194.325793	2268.750348	1.030973	0.026428	2.765279
194.826952	2279.778065	1.035978	0.026331	2.771234
195.126857	2290.802484	1.040983	0.026272	2.777141
195.662116	2301.797246	1.045988	0.026169	2.783058
196.238587	2312.807347	1.050992	0.026058	2.788977
196.811651	2323.837292	1.055997	0.025948	2.794894
197.141626	2334.898851	1.061002	0.025883	2.800774
197.591552	2345.891424	1.066006	0.025796	2.806626
197.960850	2356.930790	1.071011	0.025724	2.812476
198.362408	2367.923270	1.076016	0.025646	2.818295
199.057347	2378.914273	1.081021	0.025513	2.824149
199.584792	2389.989291	1.086025	0.025411	2.830007
199.681131	2400.999834	1.091030	0.025391	2.835750
200.235171	2412.006066	1.096035	0.025284	2.841553
200.586435	2423.030038	1.101039	0.025215	2.847320
201.325001	2434.018124	1.106044	0.025074	2.853119
201.760386	2445.056459	1.111049	0.024989	2.858883
202.147288	2456.093108	1.116054	0.024914	2.864628
202.727983	2467.093854	1.121058	0.024802	2.870372
203.216450	2478.125020	1.126063	0.024708	2.876107
203.736227	2489.140455	1.131068	0.024608	2.881826
204.226973	2500.149386	1.136073	0.024513	2.887526
204.853400	2511.186802	1.141077	0.024393	2.893251
205.289630	2522.205058	1.146082	0.024308	2.898924
205.674867	2533.203194	1.151087	0.024233	2.904569
206.090376	2544.252758	1.156091	0.024152	2.910233
206.620745	2555.229259	1.161096	0.024050	2.915866
207.035394	2566.299513	1.166101	0.023970	2.921518
207.402594	2577.274686	1.171106	0.023898	2.927104
207.754240	2588.333795	1.176110	0.023829	2.932719
208.118544	2599.306667	1.181115	0.023758	2.938282
208.639005	2610.354259	1.186120	0.023658	2.943895
208.951667	2621.365516	1.191125	0.023596	2.949448
209.613737	2632.373075	1.196129	0.023469	2.955041
210.196908	2643.407395	1.201134	0.023357	2.960625
210.693371	2654.427929	1.206139	0.023261	2.966179
211.082632	2665.440465	1.211143	0.023186	2.971702
211.496517	2676.469001	1.216148	0.023105	2.977226
212.114057	2687.444862	1.221153	0.022987	2.982744
212.579059	2698.508130	1.226158	0.022897	2.988272
212.993886	2709.512395	1.231162	0.022816	2.993753
213.514874	2720.525608	1.236167	0.022716	2.999245
213.738128	2731.558280	1.241172	0.022671	3.004691
214.341220	2742.577856	1.246177	0.022555	3.010178
214.630651	2753.591152	1.251181	0.022498	3.015604
215.181227	2764.601820	1.256186	0.022392	3.021059
215.529567	2775.615479	1.261191	0.022324	3.026475
216.133041	2786.631189	1.266195	0.022208	3.031919
216.527081	2797.656760	1.271200	0.022131	3.037328
217.114764	2808.680552	1.276205	0.022018	3.042754
217.401771	2819.708027	1.281210	0.021962	3.048129
217.606564	2830.733259	1.286214	0.021921	3.053482
218.090822	2841.714062	1.291219	0.021827	3.058843
218.757839	2852.716003	1.296224	0.021699	3.064232
219.294399	2863.769121	1.301228	0.021596	3.069617
219.498273	2874.820713	1.306233	0.021555	3.074944
219.816098	2885.810134	1.311238	0.021492	3.080248
220.112152	2896.827931	1.316243	0.021434	3.085554
220.714790	2907.827058	1.321247	0.021318	3.090884
221.182763	2918.845084	1.326252	0.021228	3.096196
221.516353	2929.875682	1.331257	0.021162	3.101485
221.830442	2940.908195	1.336262	0.021101	3.106764
222.473875	2951.884170	1.341266	0.020977	3.112052
222.872580	2962.939932	1.346271	0.020900	3.117335
223.412785	2973.940008	1.351276	0.020796	3.122603
223.836061	2984.983779	1.356280	0.020714	3.127865
224.353210	2995.951195	1.361285	0.020614	3.133096
224.770585	3007.024083	1.366290	0.020533	3.138354
225.200703	3017.995608	1.371295	0.020449	3.143557
225.783968	3029.028229	1.376299	0.020337	3.148801
226.141617	3040.049791	1.381304	0.020267	3.154000
226.620754	3051.089127	1.386309	0.020175	3.159216
226.984080	3062.073794	1.391314	0.020104	3.164381
227.342531	3073.117869	1.396318	0.020034	3.169565
227.799872	3084.115815	1.401323	0.019945	3.174732
228.104919	3095.155071	1.406328	0.019885	3.179889
228.394260	3106.146920	1.411332	0.019828	3.185014
229.035058	3117.178776	1.416337	0.019705	3.190196
229.123765	3128.201011	1.421342	0.019686	3.195291
229.700983	3139.206014	1.426347	0.019575	3.200436
230.035538	3150.223737	1.431351	0.019509	3.205545
230.491866	3161.241045	1.436356	0.019421	3.210663
230.816683	3172.251144	1.441361	0.019357	3.215751
231.268607	3183.275644	1.446366	0.019270	3.220854
231.556826	3194.280677	1.451370	0.019213	3.225919
232.018260	3205.324453	1.456375	0.019124	3.231016
232.596179	3216.281117	1.461380	0.019012	3.236081
233.597582	3227.320233	1.466384	0.018822	3.241231
233.991095	3238.361196	1.471389	0.018745	3.246294
234.479231	3249.372541	1.476394	0.018651	3.251347
234.735110	3260.392409	1.481399	0.018600	3.256366
235.277506	3271.405940	1.486403	0.018496	3.261412
235.827376	3282.430086	1.491408	0.018390	3.266456
236.337699	3293.428372	1.496413	0.018291	3.271475
236.627439	3304.462837	1.501417	0.018234	3.276474
236.956665	3315.495484	1.506422	0.018170	3.281469
237.437769	3326.496940	1.511427	0.018077	3.286463
237.967928	3337.514855	1.516432	0.017975	3.291462
238.491633	3348.518342	1.521436	0.017874	3.296446
239.177756	3359.531187	1.526441	0.017742	3.301448
239.514652	3370.568386	1.531446	0.017676	3.306408
239.922291	3381.582692	1.536451	0.017597	3.311359
240.289411	3392.602909	1.541455	0.017525	3.316301
240.621013	3403.598601	1.546460	0.017460	3.321220
241.109421	3414.620733	1.551465	0.017366	3.326162
241.551376	3425.669389	1.556469	0.017280	3.331103
242.007484	3436.645971	1.561474	0.017192	3.336007
242.489781	3447.674972	1.566479	0.017099	3.340930
242.947539	3458.691461	1.571484	0.017010	3.345837
243.453072	3469.704687	1.576488	0.016913	3.350741
243.873358	3480.743653	1.581493	0.016831	3.355638
244.247430	3491.755875	1.586498	0.016758	3.360511
244.775095	3502.757617	1.591503	0.016656	3.365391
245.140470	3513.800769	1.596507	0.016585	3.370262
245.712210	3524.770044	1.601512	0.016475	3.375119
246.194954	3535.815080	1.606517	0.016382	3.379991
246.516640	3546.833379	1.611521	0.016319	3.384824
247.269677	3557.833893	1.616526	0.016175	3.389696
247.498901	3568.869401	1.621531	0.016129	3.394511
248.005093	3579.890234	1.626536	0.016031	3.399347
248.458632	3590.887798	1.631540	0.015943	3.404160
249.111661	3601.910065	1.636545	0.015818	3.409000
249.616180	3612.913985	1.641550	0.015721	3.413808
249.929846	3623.956592	1.646555	0.015659	3.418602
250.401076	3634.945025	1.651559	0.015568	3.423386
250.912549	3645.992645	1.656564	0.015469	3.428192
251.328484	3656.984463	1.661569	0.015388	3.432957
251.901425	3668.014778	1.666573	0.015278	3.437750
252.206530	3679.019111	1.671578	0.015218	3.442493
252.750428	3690.067174	1.676583	0.015113	3.447276
252.995484	3701.048204	1.681588	0.015065	3.451989
253.363960	3712.090329	1.686592	0.014993	3.456736
253.732530	3723.081125	1.691597	0.014921	3.461455
254.145591	3734.113248	1.696602	0.014841	3.466190
254.549175	3745.097178	1.701606	0.014762	3.470896
254.874517	3756.172495	1.706611	0.014699	3.475626
255.249597	3767.155017	1.711616	0.014625	3.480316
255.756485	3778.175682	1.716621	0.014528	3.485031
256.280555	3789.187788	1.721625	0.014427	3.489738
256.720655	3800.184130	1.726630	0.014341	3.494422
257.085278	3811.245252	1.731635	0.014270	3.499118
257.521030	3822.232246	1.736640	0.014186	3.503785
258.054970	3833.255874	1.741644	0.014083	3.508472
258.414979	3844.277337	1.746649	0.014012	3.513132
258.708229	3855.291653	1.751654	0.013955	3.517775
259.106899	3866.291349	1.756658	0.013877	3.522417
259.493080	3877.337019	1.761663	0.013802	3.527072
259.893495	3888.339064	1.766668	0.013724	3.531703
260.024813	3899.359911	1.771673	0.013697	3.536306
260.546808	3910.348688	1.776677	0.013596	3.540933
260.956506	3921.378222	1.781682	0.013516	3.545559
261.441665	3932.405139	1.786687	0.013423	3.550186
261.874988	3943.424688	1.791692	0.013339	3.554797
262.263057	3954.419800	1.796696	0.013263	3.559388
262.772590	3965.435282	1.801701	0.013165	3.563995
263.166218	3976.477777	1.806706	0.013088	3.568593
263.395854	3987.491804	1.811710	0.013042	3.573156
264.026514	3998.478371	1.816715	0.012921	3.577746
264.329109	4009.508426	1.821720	0.012862	3.582312
264.557451	4020.552196	1.826725	0.012816	3.586869
264.741701	4031.537429	1.831729	0.012779	3.591391
265.292076	4042.553144	1.836734	0.012673	3.595961
265.571462	4053.573310	1.841739	0.012618	3.600496
266.177622	4064.587667	1.846744	0.012501	3.605060
266.530128	4075.591519	1.851748	0.012432	3.609585
267.016513	4086.624441	1.856753	0.012338	3.614131
267.219676	4097.673380	1.861758	0.012298	3.618647
267.606251	4108.712127	1.866762	0.012222	3.623173
267.924944	4119.733016	1.871767	0.012160	3.627678
268.247779	4130.732874	1.876772	0.012096	3.632170
268.712482	4141.722146	1.881777	0.012007	3.636668
269.286811	4152.779101	1.886781	0.011896	3.641198
269.483649	4163.804743	1.891786	0.011856	3.645670
269.967129	4174.773762	1.896791	0.011763	3.650144
270.280310	4185.814824	1.901795	0.011701	3.654624
270.726099	4196.809885	1.906800	0.011615	3.659093
271.002802	4207.868779	1.911805	0.011560	3.663565
271.429535	4218.859125	1.916810	0.011478	3.668019
271.598357	4229.892034	1.921814	0.011443	3.672458
271.955215	4240.887502	1.926819	0.011374	3.676897
272.419135	4251.894278	1.931824	0.011284	3.681345
272.974939	4262.918088	1.936829	0.011177	3.685805
273.308298	4273.931715	1.941833	0.011111	3.690231
273.652327	4284.951367	1.946838	0.011044	3.694656
274.129963	4295.955920	1.951843	0.010952	3.699083
274.629742	4306.984814	1.956847	0.010855	3.703517
275.080428	4317.992932	1.961852	0.010768	3.707932
275.413390	4329.035759	1.966857	0.010703	3.712344
275.728592	4340.023251	1.971862	0.010641	3.716726
276.250128	4351.024899	1.976866	0.010540	3.721130
276.328268	4362.085492	1.981871	0.010523	3.725506
276.827201	4373.046922	1.986876	0.010427	3.729882
277.257631	4384.086964	1.991881	0.010343	3.734276
277.638437	4395.093692	1.996885	0.010269	3.738646
277.889747	4406.143115	2.001890	0.010219	3.743015
