Wed Nov 23 19:44:20 2022

Number of Points = 2200
Depth (nm)	Load (µN)	Time (s)	Depth (V)	Load (V)
-1.043545	1.608373	0.000000	-0.008561	1.081510
0.000000	8.149343	0.005005	-0.008759	1.090863
0.845405	17.507143	0.010009	-0.008920	1.103789
1.730686	28.252587	0.015014	-0.009088	1.118406
2.220764	39.355898	0.020019	-0.009183	1.133108
2.530436	50.510309	0.025024	-0.009244	1.147603
3.028076	61.598978	0.030028	-0.009340	1.161920
3.493312	72.711663	0.035033	-0.009430	1.176078
3.817651	83.830122	0.040038	-0.009494	1.190011
4.090744	94.982538	0.045043	-0.009548	1.203800
4.379661	106.062278	0.050047	-0.009605	1.217353
4.536322	117.186778	0.055052	-0.009637	1.230752
4.878359	128.253525	0.060057	-0.009704	1.244018
5.279483	139.341139	0.065061	-0.009782	1.257193
5.542674	150.433977	0.070066	-0.009834	1.270180
5.887144	161.528737	0.075071	-0.009901	1.283071
6.160968	172.634138	0.080076	-0.009955	1.295816
6.252029	183.795651	0.085080	-0.009975	1.308426
6.680293	194.747785	0.090085	-0.010058	1.320818
7.071701	205.850000	0.095090	-0.010135	1.333246
7.367124	216.922272	0.100094	-0.010193	1.345488
7.744125	227.994960	0.105099	-0.010266	1.357652
7.978731	239.084244	0.110104	-0.010313	1.369670
8.241896	250.184887	0.115109	-0.010365	1.381606
8.636362	261.198233	0.120113	-0.010442	1.393398
9.015394	272.281403	0.125118	-0.010516	1.405158
9.322614	283.360497	0.130123	-0.010576	1.416789
9.497587	294.450727	0.135128	-0.010612	1.428288
9.934861	305.478278	0.140132	-0.010696	1.439727
10.192666	316.569702	0.145137	-0.010748	1.451075
10.578438	327.603336	0.150142	-0.010823	1.462323
10.938051	338.686151	0.155146	-0.010893	1.473524
11.079532	349.752461	0.160151	-0.010922	1.484547
11.500280	360.793953	0.165156	-0.011004	1.495563
11.730329	371.858677	0.170161	-0.011050	1.506453
27.178643	379.371618	0.175165	-0.013950	1.519113
37.014872	392.833847	0.180170	-0.015799	1.535419
37.680127	404.890189	0.185175	-0.015927	1.547109
38.244622	416.031536	0.190180	-0.016036	1.557817
39.322335	427.049340	0.195184	-0.016241	1.568508
40.082275	438.123756	0.200189	-0.016386	1.579072
40.894474	449.203630	0.205194	-0.016541	1.589589
41.476475	460.268078	0.210198	-0.016653	1.599946
42.473103	471.242123	0.215203	-0.016843	1.610289
43.498880	482.329269	0.220208	-0.017038	1.620677
44.361305	493.370708	0.225213	-0.017203	1.630905
45.240081	504.423683	0.230217	-0.017370	1.641084
46.310471	515.430890	0.235222	-0.017574	1.651219
46.915831	526.558920	0.240227	-0.017690	1.661254
48.135893	537.487897	0.245232	-0.017922	1.671244
49.192367	548.584911	0.250236	-0.018123	1.681270
50.166745	559.638966	0.255241	-0.018309	1.691174
50.683822	570.769244	0.260246	-0.018408	1.700946
51.429049	581.758737	0.265250	-0.018551	1.710611
52.190720	592.805879	0.270255	-0.018697	1.720275
52.853644	603.866182	0.275260	-0.018824	1.729866
53.965718	614.815835	0.280265	-0.019035	1.739444
55.137114	625.882228	0.285269	-0.019258	1.749084
56.003734	636.960796	0.290274	-0.019423	1.758592
56.779214	648.024753	0.295279	-0.019571	1.768010
57.367045	659.099582	0.300283	-0.019684	1.777332
58.076062	670.100111	0.305288	-0.019820	1.786578
58.826815	681.122388	0.310293	-0.019964	1.795807
60.101219	692.104805	0.315298	-0.020205	1.805105
60.753241	703.240005	0.320302	-0.020331	1.814302
61.736382	714.209914	0.325307	-0.020518	1.823412
62.645057	725.275237	0.330312	-0.020691	1.832532
63.439317	736.336601	0.335317	-0.020843	1.841572
64.215589	747.361687	0.340321	-0.020991	1.850533
65.008264	758.417312	0.345326	-0.021143	1.859480
65.614517	769.464810	0.350331	-0.021259	1.868326
66.223311	780.527594	0.355335	-0.021376	1.877142
66.804538	791.538624	0.360340	-0.021488	1.885870
67.560629	802.553899	0.365345	-0.021632	1.894607
68.372124	813.576724	0.370350	-0.021787	1.903324
69.239708	824.619602	0.375354	-0.021953	1.912032
69.851972	835.682356	0.380359	-0.022071	1.920647
70.806350	846.654710	0.385364	-0.022252	1.929245
71.704300	857.726172	0.390369	-0.022424	1.937865
72.291016	868.793115	0.395373	-0.022536	1.946361
72.996241	879.800984	0.400378	-0.022672	1.954807
73.741429	890.824710	0.405383	-0.022814	1.963238
74.570079	901.859568	0.410387	-0.022972	1.971663
74.937718	912.955079	0.415392	-0.023044	1.979978
75.436432	923.944315	0.420397	-0.023140	1.988214
76.165228	934.988203	0.425402	-0.023280	1.996514
76.671863	946.023066	0.430406	-0.023378	2.004716
77.347803	957.039958	0.435411	-0.023507	2.012915
77.994131	968.077125	0.440416	-0.023631	2.021087
78.607060	979.109220	0.445421	-0.023749	2.029213
79.186862	990.145579	0.450425	-0.023860	2.037303
79.968916	1001.147848	0.455430	-0.024010	2.045385
80.566990	1012.207393	0.460435	-0.024125	2.053431
81.149344	1023.241050	0.465439	-0.024237	2.061423
81.795582	1034.248515	0.470444	-0.024361	2.069380
82.563968	1045.304864	0.475449	-0.024508	2.077371
83.073950	1056.364268	0.480454	-0.024606	2.085272
83.426194	1067.384234	0.485458	-0.024675	2.093077
83.941723	1078.417280	0.490463	-0.024774	2.100900
84.576459	1089.403290	0.495468	-0.024896	2.108690
85.239128	1100.439011	0.500472	-0.025023	2.116492
86.110630	1111.458199	0.505477	-0.025190	2.124303
86.605723	1122.521643	0.510482	-0.025285	2.132027
87.102412	1133.538654	0.515487	-0.025381	2.139692
87.537896	1144.580429	0.520491	-0.025466	2.147332
88.267804	1155.599394	0.525496	-0.025605	2.154997
88.788748	1166.626310	0.530501	-0.025706	2.162592
89.377497	1177.650111	0.535506	-0.025819	2.170174
89.956732	1188.693056	0.540510	-0.025930	2.177739
90.697326	1199.681591	0.545515	-0.026072	2.185279
91.325895	1210.730575	0.550520	-0.026193	2.192807
91.878392	1221.763788	0.555524	-0.026299	2.200282
92.261508	1232.822827	0.560529	-0.026374	2.207710
92.719169	1243.834232	0.565534	-0.026462	2.215099
93.117926	1254.851090	0.570539	-0.026540	2.222453
93.827086	1265.851797	0.575543	-0.026676	2.229841
94.445487	1276.893465	0.580548	-0.026795	2.237211
94.803362	1287.970652	0.585553	-0.026864	2.244523
95.198225	1298.964096	0.590558	-0.026941	2.251764
95.785387	1309.988287	0.595562	-0.027054	2.259044
96.233700	1321.001183	0.600567	-0.027141	2.266263
96.908611	1332.020325	0.605572	-0.027270	2.273511
97.500400	1343.055099	0.610576	-0.027384	2.280729
97.820291	1354.103749	0.615581	-0.027447	2.287874
98.350570	1365.119812	0.620586	-0.027549	2.295021
98.869630	1376.106305	0.625591	-0.027649	2.302124
99.511781	1387.167199	0.630595	-0.027772	2.309279
100.094808	1398.163491	0.635600	-0.027885	2.316357
100.600240	1409.223121	0.640605	-0.027982	2.323438
101.088739	1420.230437	0.645610	-0.028077	2.330461
101.519975	1431.290985	0.650614	-0.028160	2.337483
101.887118	1442.269397	0.655619	-0.028232	2.344421
102.612418	1453.292833	0.660624	-0.028371	2.351439
103.281122	1464.315980	0.665628	-0.028499	2.358424
103.647406	1475.384212	0.670633	-0.028570	2.365355
103.979360	1486.403169	0.675638	-0.028635	2.372227
104.711988	1497.380069	0.680643	-0.028776	2.379136
105.165898	1508.426884	0.685647	-0.028863	2.386010
105.731969	1519.457337	0.690652	-0.028972	2.392877
106.041638	1530.500238	0.695657	-0.029033	2.399681
106.411042	1541.518349	0.700661	-0.029105	2.406462
106.760733	1552.552183	0.705666	-0.029174	2.413229
107.121003	1563.558020	0.710671	-0.029244	2.419963
107.628612	1574.553749	0.715676	-0.029342	2.426700
108.215656	1585.599195	0.720680	-0.029455	2.433465
108.581289	1596.618530	0.725685	-0.029526	2.440151
109.232094	1607.632576	0.730690	-0.029651	2.446872
109.716237	1618.690700	0.735695	-0.029745	2.453568
110.196799	1629.664089	0.740699	-0.029837	2.460194
110.737595	1640.699207	0.745704	-0.029942	2.466851
111.405413	1651.733574	0.750709	-0.030070	2.473513
111.759871	1662.750625	0.755713	-0.030139	2.480087
112.259058	1673.785650	0.760718	-0.030235	2.486682
112.884445	1684.793453	0.765723	-0.030355	2.493267
113.397722	1695.818852	0.770728	-0.030454	2.499824
113.717510	1706.866635	0.775732	-0.030517	2.506339
114.016217	1717.902731	0.780737	-0.030576	2.512827
114.433509	1728.891194	0.785742	-0.030657	2.519293
114.772264	1739.928242	0.790747	-0.030723	2.525756
115.325427	1750.918779	0.795751	-0.030830	2.532215
115.771061	1761.982657	0.800756	-0.030916	2.538680
116.083168	1772.970413	0.805761	-0.030977	2.545059
116.670205	1784.001294	0.810765	-0.031090	2.551498
117.116204	1795.024398	0.815770	-0.031177	2.557891
117.703083	1806.036653	0.820775	-0.031290	2.564287
118.308682	1817.068186	0.825780	-0.031406	2.570681
118.643818	1828.157718	0.830784	-0.031472	2.577043
118.787265	1839.157968	0.835789	-0.031501	2.583303
119.046532	1850.136901	0.840794	-0.031553	2.589557
119.546664	1861.134823	0.845799	-0.031649	2.595851
120.274885	1872.151537	0.850803	-0.031789	2.602180
120.803543	1883.183895	0.855808	-0.031890	2.608467
121.410305	1894.220306	0.860813	-0.032007	2.614755
121.507547	1905.255428	0.865817	-0.032028	2.620936
122.066103	1916.227896	0.870822	-0.032136	2.627150
122.701727	1927.289681	0.875827	-0.032258	2.633412
123.252075	1938.286328	0.880832	-0.032364	2.639607
123.661320	1949.314903	0.885836	-0.032443	2.645781
124.115754	1960.357970	0.890841	-0.032531	2.651957
124.611521	1971.354663	0.895846	-0.032627	2.658099
125.450702	1982.339018	0.900850	-0.032787	2.664281
125.991507	1993.386432	0.905855	-0.032891	2.670430
126.319141	2004.438390	0.910860	-0.032955	2.676531
126.826338	2015.460890	0.915865	-0.033053	2.682632
127.108222	2026.469583	0.920869	-0.033109	2.688674
127.413688	2037.496535	0.925874	-0.033169	2.694715
127.841691	2048.484582	0.930879	-0.033252	2.700743
128.392732	2059.487836	0.935884	-0.033358	2.706787
128.785800	2070.560375	0.940888	-0.033435	2.712827
129.134985	2081.525020	0.945893	-0.033503	2.718789
129.462418	2092.591431	0.950898	-0.033567	2.724788
130.093108	2103.560543	0.955902	-0.033688	2.730773
130.427321	2114.610773	0.960907	-0.033754	2.736738
130.808252	2125.641604	0.965912	-0.033828	2.742688
131.162396	2136.650088	0.970917	-0.033897	2.748608
131.585470	2147.650000	0.975921	-0.033979	2.754522
131.883319	2158.695571	0.980926	-0.034038	2.760427
132.482920	2169.681508	0.985931	-0.034153	2.766338
133.046752	2180.734244	0.990936	-0.034261	2.772265
133.250334	2191.751049	0.995940	-0.034302	2.778101
133.868780	2202.759503	1.000945	-0.034421	2.783989
134.147220	2213.777531	1.005950	-0.034476	2.789813
134.543994	2224.809589	1.010954	-0.034553	2.795652
135.131836	2235.811805	1.015959	-0.034666	2.801494
135.562652	2246.854690	1.020964	-0.034750	2.807319
136.150742	2257.845817	1.025969	-0.034863	2.813131
136.418199	2268.883303	1.030973	-0.034916	2.818903
136.841604	2279.888211	1.035978	-0.034998	2.824671
137.249934	2290.940143	1.040983	-0.035077	2.830449
137.441199	2301.943518	1.045988	-0.035116	2.836156
137.912490	2312.968409	1.050992	-0.035207	2.841907
138.089020	2323.987314	1.055997	-0.035243	2.847596
138.553842	2334.999949	1.061002	-0.035333	2.853316
139.050486	2345.991244	1.066006	-0.035429	2.859019
139.704057	2357.016770	1.071011	-0.035554	2.864752
140.113118	2368.056321	1.076016	-0.035634	2.870442
140.424446	2379.093601	1.081021	-0.035695	2.876105
140.675868	2390.116599	1.086025	-0.035745	2.881740
141.083356	2401.107465	1.091030	-0.035824	2.887372
141.559778	2412.125738	1.096035	-0.035916	2.893017
142.091959	2423.137889	1.101039	-0.036019	2.898656
142.410657	2434.165401	1.106044	-0.036081	2.904260
142.718310	2445.208635	1.111049	-0.036142	2.909859
142.953880	2456.217639	1.116054	-0.036189	2.915418
143.422038	2467.223838	1.121058	-0.036279	2.921001
144.056239	2478.211704	1.126063	-0.036401	2.926590
144.860600	2489.232811	1.131068	-0.036555	2.932210
145.157471	2500.280880	1.136073	-0.036613	2.937755
145.477201	2511.313674	1.141077	-0.036676	2.943286
145.687037	2522.310213	1.146082	-0.036718	2.948772
146.250868	2533.314219	1.151087	-0.036826	2.954305
146.734258	2544.351846	1.156091	-0.036920	2.959831
147.391537	2555.354883	1.161096	-0.037046	2.965356
147.821014	2566.398538	1.166101	-0.037129	2.970857
147.989692	2577.427440	1.171106	-0.037164	2.976301
148.378827	2588.426785	1.176110	-0.037239	2.981754
148.695773	2599.442296	1.181115	-0.037301	2.987194
149.121156	2610.455185	1.186120	-0.037384	2.992638
149.575152	2621.485769	1.191125	-0.037472	2.998085
149.815722	2632.508017	1.196129	-0.037520	3.003487
150.308548	2643.506782	1.201134	-0.037615	3.008905
150.716751	2654.516529	1.206139	-0.037694	3.014306
151.412436	2665.533880	1.211143	-0.037828	3.019742
151.759676	2676.572766	1.216148	-0.037895	3.025128
152.097267	2687.615175	1.221153	-0.037962	3.030505
152.356188	2698.609613	1.226158	-0.038013	3.035839
152.737718	2709.649453	1.231162	-0.038087	3.041201
153.022280	2720.618339	1.236167	-0.038143	3.046507
153.695044	2731.668367	1.241172	-0.038272	3.051897
153.782665	2742.685525	1.246177	-0.038291	3.057179
154.457407	2753.665008	1.251181	-0.038421	3.062517
154.757414	2764.730503	1.256186	-0.038480	3.067834
155.311928	2775.712387	1.261191	-0.038587	3.073137
155.524696	2786.761913	1.266195	-0.038629	3.078415
156.019917	2797.758810	1.271200	-0.038725	3.083699
156.154057	2808.817956	1.276205	-0.038753	3.088952
156.495707	2819.808260	1.281210	-0.038820	3.094193
156.620169	2830.833381	1.286214	-0.038846	3.099411
156.928475	2841.834897	1.291219	-0.038906	3.104635
157.118471	2852.874213	1.296224	-0.038945	3.109851
157.523864	2863.866151	1.301228	-0.039023	3.115066
157.963023	2874.891015	1.306233	-0.039109	3.120292
158.485376	2885.904362	1.311238	-0.039209	3.125516
158.896068	2896.929344	1.316243	-0.039289	3.130721
159.401480	2907.935933	1.321247	-0.039387	3.135921
159.800211	2918.952998	1.326252	-0.039464	3.141103
160.181963	2929.981549	1.331257	-0.039539	3.146279
160.446279	2940.995673	1.336262	-0.039591	3.151424
160.742928	2952.025372	1.341266	-0.039649	3.156572
160.936119	2963.036028	1.346271	-0.039688	3.161689
161.463877	2974.041572	1.351276	-0.039790	3.166841
161.774921	2985.056891	1.356280	-0.039851	3.171959
162.006025	2996.101383	1.361285	-0.039897	3.177071
162.266145	3007.093572	1.366290	-0.039949	3.182156
162.728833	3018.127177	1.371295	-0.040038	3.187277
163.054516	3029.130766	1.376299	-0.040102	3.192359
163.490666	3040.161196	1.381304	-0.040187	3.197460
163.766003	3051.176197	1.386309	-0.040241	3.202523
164.168571	3062.191286	1.391314	-0.040319	3.207596
164.597047	3073.185146	1.396318	-0.040402	3.212654
165.011482	3084.211151	1.401323	-0.040483	3.217717
165.165138	3095.256508	1.406328	-0.040515	3.222747
165.491150	3106.257160	1.411332	-0.040578	3.227771
165.769074	3117.262187	1.416337	-0.040633	3.232783
166.074549	3128.302260	1.421342	-0.040693	3.237806
166.459082	3139.282298	1.426347	-0.040768	3.242805
166.926714	3150.332176	1.431351	-0.040859	3.247837
167.338588	3161.328054	1.436356	-0.040939	3.252831
167.749825	3172.353968	1.441361	-0.041019	3.257830
167.994320	3183.376629	1.446366	-0.041067	3.262799
168.528700	3194.387203	1.451370	-0.041170	3.267792
168.918007	3205.384553	1.456375	-0.041246	3.272752
169.330466	3216.430213	1.461380	-0.041326	3.277730
169.582211	3227.444878	1.466384	-0.041376	3.282665
170.160412	3238.473322	1.471389	-0.041487	3.287641
170.419760	3249.459880	1.476394	-0.041539	3.292550
170.777735	3260.490038	1.481399	-0.041609	3.297483
170.903141	3271.519126	1.486403	-0.041635	3.302379
171.431997	3282.509603	1.491408	-0.041737	3.307302
171.794473	3293.528039	1.496413	-0.041808	3.312208
172.165436	3304.577085	1.501417	-0.041880	3.317122
172.453791	3315.577474	1.506422	-0.041937	3.321997
172.712480	3326.599849	1.511427	-0.041988	3.326870
173.165836	3337.584384	1.516432	-0.042076	3.331744
173.504348	3348.637826	1.521436	-0.042142	3.336627
173.733371	3359.623623	1.526441	-0.042188	3.341459
174.131029	3370.675380	1.531446	-0.042265	3.346334
174.325822	3381.673873	1.536451	-0.042304	3.351153
174.755882	3392.679695	1.541455	-0.042388	3.355997
175.060624	3403.713304	1.546460	-0.042448	3.360832
175.307130	3414.747762	1.551465	-0.042497	3.365652
175.504848	3425.736997	1.556469	-0.042536	3.370440
175.822311	3436.764115	1.561474	-0.042599	3.375252
176.171654	3447.765844	1.566479	-0.042667	3.380050
176.783174	3458.771849	1.571484	-0.042785	3.384874
177.187875	3469.806189	1.576488	-0.042863	3.389679
177.521648	3480.825535	1.581493	-0.042929	3.394462
177.851686	3491.858881	1.586498	-0.042993	3.399243
178.095386	3502.853481	1.591503	-0.043042	3.403991
178.426029	3513.881059	1.596507	-0.043106	3.408757
178.825124	3524.868162	1.601512	-0.043184	3.413507
179.086315	3535.906267	1.606517	-0.043236	3.418255
179.572224	3546.905779	1.611521	-0.043330	3.423007
179.984613	3557.945785	1.616526	-0.043410	3.427761
180.380376	3568.936375	1.621531	-0.043487	3.432486
180.655208	3579.979555	1.626536	-0.043541	3.437211
181.008618	3590.973092	1.631540	-0.043610	3.441919
181.368826	3602.015523	1.636545	-0.043680	3.446641
181.604836	3613.025704	1.641550	-0.043727	3.451329
181.927721	3624.022014	1.646555	-0.043791	3.456014
182.251279	3635.040029	1.651559	-0.043854	3.460703
182.627885	3646.068370	1.656564	-0.043928	3.465395
182.923731	3657.085917	1.661569	-0.043986	3.470067
183.065610	3668.111714	1.666573	-0.044015	3.474718
183.368632	3679.128425	1.671578	-0.044075	3.479378
183.756155	3690.137841	1.676583	-0.044150	3.484039
184.191386	3701.145607	1.681588	-0.044235	3.488697
184.579763	3712.157366	1.686592	-0.044310	3.493346
184.957007	3723.174473	1.691597	-0.044384	3.497989
185.394372	3734.180470	1.696602	-0.044469	3.502629
185.593314	3745.226537	1.701606	-0.044509	3.507251
185.775312	3756.228870	1.706611	-0.044545	3.511848
186.370897	3767.234358	1.711616	-0.044660	3.516486
186.519637	3778.261570	1.716621	-0.044691	3.521077
186.937984	3789.277824	1.721625	-0.044772	3.525688
187.062450	3800.319661	1.726630	-0.044798	3.530270
187.298004	3811.320994	1.731635	-0.044845	3.534842
187.626903	3822.310837	1.736640	-0.044909	3.539413
187.827488	3833.352822	1.741644	-0.044950	3.543986
188.225150	3844.343270	1.746649	-0.045027	3.548553
188.491660	3855.388853	1.751654	-0.045080	3.553123
188.687887	3866.384082	1.756658	-0.045119	3.557658
189.099769	3877.394293	1.761663	-0.045199	3.562218
189.271811	3888.415413	1.766668	-0.045234	3.566749
189.843587	3899.397085	1.771673	-0.045344	3.571303
190.066904	3910.471259	1.776677	-0.045389	3.575850
190.599120	3921.447280	1.781682	-0.045491	3.580385
190.865853	3932.501705	1.786687	-0.045544	3.584917
191.181168	3943.482153	1.791692	-0.045606	3.589419
191.513862	3954.531240	1.796696	-0.045671	3.593945
191.839182	3965.534168	1.801701	-0.045735	3.598445
192.153555	3976.558703	1.806706	-0.045797	3.602947
192.370811	3987.556744	1.811710	-0.045840	3.607423
192.635821	3998.576830	1.816715	-0.045893	3.611906
193.128448	4009.548964	1.821720	-0.045988	3.616390
193.895321	4020.599649	1.826725	-0.046135	3.620928
194.308830	4031.617980	1.831729	-0.046215	3.625410
194.614914	4042.618907	1.836734	-0.046275	3.629868
194.883527	4053.666851	1.841739	-0.046328	3.634335
195.042525	4064.682797	1.846744	-0.046361	3.638772
195.495459	4075.671551	1.851748	-0.046448	3.643224
195.810026	4086.726164	1.856753	-0.046510	3.647683
196.318566	4097.716258	1.861758	-0.046608	3.652130
196.657278	4108.775741	1.866762	-0.046675	3.656582
196.857245	4119.794529	1.871767	-0.046715	3.660997
197.145125	4130.820238	1.876772	-0.046772	3.665419
197.545547	4141.806514	1.881777	-0.046849	3.669832
197.981274	4152.831730	1.886781	-0.046934	3.674258
198.385710	4163.849678	1.891786	-0.047013	3.678673
198.533108	4174.909650	1.896791	-0.047043	3.683072
198.843989	4185.900934	1.901795	-0.047104	3.687456
199.309894	4196.870757	1.906800	-0.047194	3.691842
200.150201	4207.887992	1.911805	-0.047355	3.696280
200.348468	4218.933907	1.916810	-0.047395	3.700658
200.852893	4229.949337	1.921814	-0.047492	3.705050
201.010888	4240.976769	1.926819	-0.047524	3.709407
201.308663	4251.970793	1.931824	-0.047583	3.713759
201.920140	4262.989956	1.936829	-0.047700	3.718147
202.351327	4274.007903	1.941833	-0.047784	3.722512
202.697671	4285.056262	1.946838	-0.047852	3.726874
202.848597	4296.022914	1.951843	-0.047883	3.731180
203.082135	4307.074627	1.956847	-0.047929	3.735523
203.405675	4318.066645	1.961852	-0.047993	3.739846
203.773952	4329.082607	1.966857	-0.048065	3.744178
204.241008	4340.106360	1.971862	-0.048155	3.748517
