Wed Nov 23 19:44:20 2022

Number of Points = 2200
Depth (nm)	Load (µN)	Time (s)	Depth (V)	Load (V)
-4.679033	-0.764586	0.000000	0.008696	1.030978
0.000000	6.639022	0.005005	0.007816	1.043922
2.029888	16.640868	0.010009	0.007433	1.058956
3.455671	27.648051	0.015014	0.007163	1.074848
4.640326	38.783034	0.020019	0.006938	1.090560
5.986746	49.905244	0.025024	0.006682	1.106110
7.103861	61.074586	0.030028	0.006470	1.121395
8.229570	72.219437	0.035033	0.006256	1.136445
9.069188	83.392148	0.040038	0.006096	1.151200
10.089675	94.506067	0.045043	0.005901	1.165776
10.940004	105.639263	0.050047	0.005739	1.180119
11.931485	116.716289	0.055052	0.005550	1.194282
12.799326	127.867442	0.060057	0.005385	1.208314
13.702729	138.980385	0.065061	0.005213	1.222155
14.493912	150.061062	0.070066	0.005061	1.235752
15.458942	161.156956	0.075071	0.004877	1.249293
16.190351	172.296401	0.080076	0.004737	1.262640
17.127443	183.345208	0.085080	0.004559	1.275829
18.218282	194.402718	0.090085	0.004352	1.288956
19.178086	205.555827	0.095090	0.004169	1.302005
20.041518	216.616704	0.100094	0.004004	1.314780
21.179766	227.664580	0.105099	0.003788	1.327529
21.998826	238.801084	0.110104	0.003631	1.340125
23.062425	249.819931	0.115109	0.003429	1.352572
23.965563	260.914624	0.120113	0.003257	1.364924
25.027816	271.998049	0.125118	0.003055	1.377215
25.712843	283.115518	0.130123	0.002923	1.389287
26.711801	294.150440	0.135128	0.002733	1.401288
27.456886	305.244726	0.140132	0.002591	1.413152
28.406353	316.301729	0.145137	0.002410	1.424954
28.947180	327.428292	0.150142	0.002305	1.436580
29.648889	338.482471	0.155146	0.002171	1.448097
30.318026	349.537516	0.160151	0.002043	1.459512
31.058190	360.571190	0.165156	0.001901	1.470842
31.871087	371.654214	0.170161	0.001746	1.482160
32.775022	382.667431	0.175165	0.001573	1.493356
33.406872	393.798753	0.180170	0.001452	1.504487
34.236211	404.816632	0.185175	0.001294	1.515495
34.918202	415.902404	0.190180	0.001163	1.526438
35.704634	426.946706	0.195184	0.001013	1.537298
36.462615	437.994930	0.200189	0.000868	1.548076
37.491889	449.018104	0.205194	0.000672	1.558847
38.187230	460.108543	0.210198	0.000539	1.569495
38.775572	471.216753	0.215203	0.000426	1.580051
39.401205	482.220676	0.220208	0.000305	1.590453
40.169974	493.277673	0.225213	0.000159	1.600883
40.791837	504.331244	0.230217	0.000039	1.611194
41.494143	515.418051	0.235222	-0.000095	1.621495
41.983257	526.444951	0.240227	-0.000190	1.631608
42.829075	537.443339	0.245232	-0.000351	1.641747
43.503498	548.516075	0.250236	-0.000481	1.651835
44.412285	559.545948	0.255241	-0.000654	1.661897
45.193974	570.583768	0.260246	-0.000803	1.671866
46.007718	581.651177	0.265250	-0.000959	1.681811
46.500769	592.732966	0.270255	-0.001054	1.691611
47.233903	603.766698	0.275260	-0.001194	1.701386
47.879668	614.785145	0.280265	-0.001318	1.711065
48.609307	625.833373	0.285269	-0.001458	1.720740
49.431596	636.832118	0.290274	-0.001615	1.730346
50.184721	647.945792	0.295279	-0.001759	1.739975
50.965361	658.944097	0.300283	-0.001908	1.749463
51.816617	670.000417	0.305288	-0.002071	1.758968
52.433746	681.043433	0.310293	-0.002189	1.768342
53.294915	692.078787	0.315298	-0.002353	1.777731
53.853887	703.147117	0.320302	-0.002461	1.787009
54.612867	714.177452	0.325307	-0.002606	1.796266
55.381372	725.185702	0.330312	-0.002753	1.805460
56.048022	736.261637	0.335317	-0.002881	1.814633
56.742609	747.267974	0.340321	-0.003014	1.823712
57.605501	758.327304	0.345326	-0.003179	1.832834
58.034075	769.400243	0.350331	-0.003262	1.841801
58.539112	780.451305	0.355335	-0.003359	1.850728
58.996017	791.469739	0.360340	-0.003448	1.859573
59.747821	802.466082	0.365345	-0.003592	1.868440
60.556330	813.499050	0.370350	-0.003746	1.877308
61.093758	824.596032	0.375354	-0.003850	1.886110
61.672917	835.582880	0.380359	-0.003961	1.894797
62.529873	846.599794	0.385364	-0.004125	1.903543
63.248719	857.647739	0.390369	-0.004262	1.912234
63.832345	868.727301	0.395373	-0.004374	1.920874
64.299765	879.760884	0.400378	-0.004465	1.929410
65.223593	890.732795	0.405383	-0.004641	1.937981
65.635690	901.811174	0.410387	-0.004721	1.946461
66.452176	912.819254	0.415392	-0.004877	1.954956
66.940518	923.882032	0.420397	-0.004971	1.963369
67.716287	934.892166	0.425402	-0.005120	1.971782
68.267409	945.946994	0.430406	-0.005226	1.980134
68.898019	956.964736	0.435411	-0.005347	1.988443
69.399949	968.011154	0.440416	-0.005444	1.996706
70.282003	979.015332	0.445421	-0.005612	2.005000
70.902163	990.061471	0.450425	-0.005731	2.013224
71.456444	1001.113917	0.455430	-0.005838	2.021403
71.903210	1012.141459	0.460435	-0.005924	2.029503
72.720664	1023.147918	0.465439	-0.006080	2.037648
73.309394	1034.206222	0.470444	-0.006194	2.045741
73.994761	1045.232704	0.475449	-0.006325	2.053803
74.283979	1056.311368	0.480454	-0.006382	2.061773
74.685693	1067.315542	0.485458	-0.006460	2.069687
75.140261	1078.346346	0.490463	-0.006548	2.077603
76.063664	1089.320845	0.495468	-0.006724	2.085561
76.687779	1100.388799	0.500472	-0.006844	2.093482
77.249767	1111.414866	0.505477	-0.006952	2.101330
77.666209	1122.476251	0.510482	-0.007033	2.109138
78.169067	1133.482010	0.515487	-0.007130	2.116898
78.689849	1144.523473	0.520491	-0.007231	2.124659
79.299896	1155.535135	0.525496	-0.007348	2.132393
79.697172	1166.574058	0.530501	-0.007425	2.140067
80.456327	1177.560112	0.535506	-0.007570	2.147761
80.971439	1188.665295	0.540510	-0.007670	2.155452
81.439301	1199.642052	0.545515	-0.007760	2.163018
81.876396	1210.701765	0.550520	-0.007845	2.170606
82.457863	1221.713020	0.555524	-0.007957	2.178168
82.920868	1232.735685	0.560529	-0.008046	2.185684
83.468608	1243.755705	0.565534	-0.008152	2.193192
83.952429	1254.801827	0.570539	-0.008245	2.200676
84.785432	1265.788305	0.575543	-0.008404	2.208174
85.251433	1276.858597	0.580548	-0.008495	2.215620
85.909447	1287.858386	0.585553	-0.008621	2.223037
86.411474	1298.883909	0.590558	-0.008718	2.230411
87.001644	1309.943881	0.595562	-0.008831	2.237803
87.336303	1320.981883	0.600567	-0.008897	2.245100
88.040569	1331.945697	0.605572	-0.009032	2.252405
88.373496	1343.044917	0.610576	-0.009097	2.259694
88.898387	1354.026100	0.615581	-0.009198	2.266924
89.415190	1365.048597	0.620586	-0.009298	2.274157
90.019407	1376.084902	0.625591	-0.009414	2.281393
90.331404	1387.119843	0.630595	-0.009475	2.288543
91.030580	1398.118393	0.635600	-0.009609	2.295730
91.610672	1409.149592	0.640605	-0.009721	2.302890
92.274083	1420.160568	0.645610	-0.009848	2.310032
92.947500	1431.205358	0.650614	-0.009977	2.317176
93.280316	1442.246367	0.655619	-0.010042	2.324223
93.756580	1453.264137	0.660624	-0.010134	2.331265
94.154460	1464.312127	0.665628	-0.010212	2.338287
94.809130	1475.278416	0.670633	-0.010337	2.345291
95.366870	1486.330161	0.675638	-0.010444	2.352307
95.633391	1497.392108	0.680643	-0.010497	2.359248
96.231904	1508.339790	0.685647	-0.010612	2.366166
96.789850	1519.420499	0.690652	-0.010720	2.373137
97.442477	1530.400316	0.695657	-0.010845	2.380045
98.046995	1541.454835	0.700661	-0.010961	2.386969
98.356306	1552.517842	0.705666	-0.011022	2.393818
98.850336	1563.476069	0.710671	-0.011117	2.400621
99.370202	1574.526841	0.715676	-0.011217	2.407466
99.860523	1585.577170	0.720680	-0.011312	2.414285
100.496194	1596.539356	0.725685	-0.011434	2.421060
100.897284	1607.601116	0.730690	-0.011512	2.427830
101.374278	1618.633724	0.735695	-0.011604	2.434578
101.653609	1629.651414	0.740699	-0.011660	2.441259
102.203871	1640.659032	0.745704	-0.011766	2.447970
102.795346	1651.691005	0.750709	-0.011879	2.454684
103.366499	1662.701747	0.755713	-0.011989	2.461363
103.750738	1673.737235	0.760718	-0.012064	2.468003
104.236463	1684.773354	0.765723	-0.012158	2.474644
104.531574	1695.800753	0.770728	-0.012216	2.481226
105.213645	1706.771666	0.775732	-0.012347	2.487831
105.452474	1717.882070	0.780737	-0.012394	2.494415
105.878787	1728.850238	0.785742	-0.012477	2.500935
106.289803	1739.866229	0.790747	-0.012557	2.507462
106.906746	1750.870970	0.795751	-0.012675	2.514005
107.566605	1761.908542	0.800756	-0.012802	2.520558
107.934355	1772.939315	0.805761	-0.012874	2.527035
108.566434	1783.959011	0.810765	-0.012995	2.533538
109.002850	1794.984337	0.815770	-0.013080	2.539991
109.420683	1806.005550	0.820775	-0.013161	2.546422
109.926797	1817.027010	0.825780	-0.013258	2.552852
110.320553	1828.055963	0.830784	-0.013335	2.559251
110.974492	1839.053872	0.835789	-0.013460	2.565663
111.317120	1850.125049	0.840794	-0.013527	2.572043
111.685056	1861.187511	0.845799	-0.013599	2.578408
112.196254	1872.108496	0.850803	-0.013698	2.584702
112.736093	1883.144189	0.855808	-0.013802	2.591051
113.131908	1894.199384	0.860813	-0.013879	2.597369
113.622714	1905.192003	0.865817	-0.013974	2.603654
114.322236	1916.177855	0.870822	-0.014108	2.609957
114.601828	1927.278410	0.875827	-0.014163	2.616234
114.860198	1938.272029	0.880832	-0.014214	2.622432
115.394271	1949.273995	0.885836	-0.014317	2.628669
115.863658	1960.294540	0.890841	-0.014408	2.634890
116.459068	1971.323551	0.895846	-0.014522	2.641124
116.804531	1982.350153	0.900850	-0.014590	2.647297
117.257622	1993.396988	0.905855	-0.014678	2.653485
117.562711	2004.383831	0.910860	-0.014738	2.659600
118.196736	2015.386763	0.915865	-0.014859	2.665768
118.495822	2026.461361	0.920869	-0.014918	2.671901
118.879093	2037.442140	0.925874	-0.014993	2.677984
119.337599	2048.453158	0.930879	-0.015082	2.684083
119.906655	2059.462872	0.935884	-0.015191	2.690186
120.338445	2070.481981	0.940888	-0.015275	2.696256
121.031150	2081.481515	0.945893	-0.015407	2.702347
121.443879	2092.529322	0.950898	-0.015488	2.708402
121.958193	2103.546660	0.955902	-0.015587	2.714444
122.207791	2114.592599	0.960907	-0.015636	2.720443
122.787725	2125.559308	0.965912	-0.015748	2.726443
123.325290	2136.648062	0.970917	-0.015852	2.732487
123.817487	2147.591947	0.975921	-0.015947	2.738432
124.349070	2158.643773	0.980926	-0.016049	2.744429
124.649261	2169.688689	0.985931	-0.016108	2.750370
125.152580	2180.674868	0.990936	-0.016205	2.756301
125.580935	2191.716455	0.995940	-0.016288	2.762236
125.946619	2202.741769	1.000945	-0.016360	2.768139
126.470344	2213.715114	1.005950	-0.016461	2.774028
126.879754	2224.790756	1.010954	-0.016540	2.779940
127.376766	2235.769390	1.015959	-0.016636	2.785802
127.845064	2246.836626	1.020964	-0.016727	2.791694
128.157325	2257.816640	1.025969	-0.016788	2.797501
128.713150	2268.839098	1.030973	-0.016895	2.803359
129.151527	2279.875694	1.035978	-0.016980	2.809192
129.523756	2290.891522	1.040983	-0.017053	2.814992
129.821691	2301.911492	1.045988	-0.017111	2.820770
130.141681	2312.939761	1.050992	-0.017174	2.826544
130.963688	2323.891712	1.055997	-0.017331	2.832347
131.362355	2334.986548	1.061002	-0.017409	2.838144
131.809569	2345.960476	1.066006	-0.017495	2.843874
132.118658	2357.044044	1.071011	-0.017556	2.849627
132.391713	2368.016077	1.076016	-0.017610	2.855306
132.966985	2379.037273	1.081021	-0.017721	2.861046
133.306432	2390.052477	1.086025	-0.017787	2.866734
133.961359	2401.074970	1.091030	-0.017913	2.872464
134.352120	2412.083046	1.096035	-0.017989	2.878134
134.684949	2423.128620	1.101039	-0.018054	2.883803
135.145087	2434.144967	1.106044	-0.018143	2.889465
135.458651	2445.176552	1.111049	-0.018205	2.895101
135.986001	2456.160855	1.116054	-0.018306	2.900736
136.404697	2467.198507	1.121058	-0.018388	2.906369
136.669788	2478.215635	1.126063	-0.018440	2.911957
136.971550	2489.231854	1.131068	-0.018499	2.917540
137.441341	2500.231987	1.136073	-0.018590	2.923130
138.066540	2511.279404	1.141077	-0.018710	2.928756
138.308310	2522.278521	1.146082	-0.018758	2.934289
138.656956	2533.310663	1.151087	-0.018827	2.939844
139.022274	2544.313184	1.156091	-0.018898	2.945376
139.588381	2555.350707	1.161096	-0.019007	2.950945
139.940392	2566.354940	1.166101	-0.019076	2.956455
140.593325	2577.361532	1.171106	-0.019201	2.962001
140.850940	2588.405438	1.176110	-0.019252	2.967496
141.376869	2599.402272	1.181115	-0.019353	2.972997
141.880587	2610.431866	1.186120	-0.019451	2.978501
142.247743	2621.474046	1.191125	-0.019522	2.983980
142.542060	2632.463326	1.196129	-0.019580	2.989413
142.809562	2643.505906	1.201134	-0.019633	2.994858
143.170340	2654.500518	1.206139	-0.019704	3.000283
143.449494	2665.559205	1.211143	-0.019759	3.005717
143.696714	2676.555390	1.216148	-0.019808	3.011107
144.136479	2687.554269	1.221153	-0.019893	3.016516
144.528064	2698.558844	1.226158	-0.019969	3.021911
144.996348	2709.607655	1.231162	-0.020060	3.027329
145.433987	2720.602558	1.236167	-0.020145	3.032707
145.948927	2731.623493	1.241172	-0.020244	3.038099
146.190358	2742.658051	1.246177	-0.020292	3.043448
146.690122	2753.679386	1.251181	-0.020389	3.048818
147.048646	2764.672970	1.256186	-0.020459	3.054146
147.688246	2775.676772	1.261191	-0.020581	3.059509
148.204543	2786.713760	1.266195	-0.020681	3.064860
148.663194	2797.753056	1.271200	-0.020770	3.070196
148.706388	2808.773512	1.276205	-0.020780	3.075454
149.008394	2819.797157	1.281210	-0.020840	3.080741
149.361200	2830.794746	1.286214	-0.020909	3.086013
149.837349	2841.803334	1.291219	-0.021001	3.091300
150.156177	2852.820399	1.296224	-0.021063	3.096559
150.634381	2863.847782	1.301228	-0.021156	3.101836
151.047408	2874.842166	1.306233	-0.021236	3.107079
151.565516	2885.885613	1.311238	-0.021336	3.112351
151.784390	2896.918232	1.316243	-0.021380	3.117568
152.189104	2907.912843	1.321247	-0.021459	3.122783
152.646086	2918.946240	1.326252	-0.021547	3.128016
153.230974	2929.921592	1.331257	-0.021659	3.133229
153.795063	2940.956085	1.336262	-0.021768	3.138459
154.279980	2951.989241	1.341266	-0.021862	3.143668
154.609308	2962.998857	1.346271	-0.021926	3.148837
155.053931	2974.020057	1.351276	-0.022012	3.154018
155.328563	2985.047597	1.356280	-0.022067	3.159170
155.942848	2996.046812	1.361285	-0.022185	3.164347
156.121190	3007.100709	1.366290	-0.022221	3.169481
156.438340	3018.099068	1.371295	-0.022283	3.174600
156.866190	3029.114450	1.376299	-0.022366	3.179734
157.382547	3040.110776	1.381304	-0.022466	3.184862
157.691389	3051.159860	1.386309	-0.022526	3.189978
158.089855	3062.151232	1.391314	-0.022604	3.195072
158.515101	3073.179402	1.396318	-0.022686	3.200178
158.898361	3084.198841	1.401323	-0.022761	3.205266
159.299265	3095.213961	1.406328	-0.022839	3.210346
159.527798	3106.226196	1.411332	-0.022885	3.215394
160.025260	3117.237981	1.416337	-0.022981	3.220469
160.284675	3128.262109	1.421342	-0.023032	3.225510
160.716641	3139.281527	1.426347	-0.023116	3.230564
161.100464	3150.297330	1.431351	-0.023191	3.235602
161.830044	3161.278824	1.436356	-0.023330	3.240662
162.148640	3172.353538	1.441361	-0.023393	3.245702
162.368654	3183.350026	1.446366	-0.023437	3.250686
162.907095	3194.356214	1.451370	-0.023541	3.255708
163.042630	3205.382845	1.456375	-0.023569	3.260680
163.635215	3216.395781	1.461380	-0.023683	3.265696
164.134605	3227.395032	1.466384	-0.023779	3.270686
164.502112	3238.442315	1.471389	-0.023851	3.275674
164.888116	3249.440649	1.476394	-0.023926	3.280634
165.271730	3260.477024	1.481399	-0.024001	3.285603
165.657291	3271.466071	1.486403	-0.024076	3.290544
166.010362	3282.519235	1.491408	-0.024145	3.295502
166.349915	3293.503137	1.496413	-0.024211	3.300420
166.915037	3304.523541	1.501417	-0.024320	3.305375
167.087515	3315.578639	1.506422	-0.024355	3.310288
167.406825	3326.575446	1.511427	-0.024418	3.315187
167.810943	3337.578258	1.516432	-0.024496	3.320092
168.154325	3348.595788	1.521436	-0.024563	3.324988
168.613895	3359.618347	1.526441	-0.024652	3.329893
169.163346	3370.635067	1.531446	-0.024758	3.334800
169.496569	3381.647667	1.536451	-0.024823	3.339671
170.043265	3392.653578	1.541455	-0.024929	3.344558
170.159540	3403.716640	1.546460	-0.024953	3.349410
170.612917	3414.684536	1.551465	-0.025041	3.354255
171.033994	3425.730126	1.556469	-0.025123	3.359123
171.605976	3436.703842	1.561474	-0.025233	3.363970
172.071990	3447.758175	1.566479	-0.025323	3.368833
172.301989	3458.782814	1.571484	-0.025369	3.373646
172.721294	3469.752402	1.576488	-0.025450	3.378452
173.148744	3480.805030	1.581493	-0.025533	3.383288
173.553917	3491.806389	1.586498	-0.025612	3.388093
174.045230	3502.819254	1.591503	-0.025707	3.392905
174.286920	3513.848981	1.596507	-0.025755	3.397688
174.782700	3524.865078	1.601512	-0.025851	3.402489
175.055162	3535.892484	1.606517	-0.025905	3.407261
175.608505	3546.874998	1.611521	-0.026011	3.412040
175.972076	3557.910110	1.616526	-0.026082	3.416813
176.436107	3568.930942	1.621531	-0.026172	3.421584
176.758741	3579.941002	1.626536	-0.026235	3.426328
177.365663	3590.953804	1.631540	-0.026352	3.431100
177.499576	3601.987992	1.636545	-0.026380	3.435818
178.067854	3612.980591	1.641550	-0.026489	3.440563
178.499380	3624.017836	1.646555	-0.026573	3.445304
178.741886	3635.050676	1.651559	-0.026621	3.450015
179.001864	3646.041680	1.656564	-0.026672	3.454704
179.525601	3657.050574	1.661569	-0.026773	3.459424
179.930702	3668.076569	1.666573	-0.026852	3.464132
180.609226	3679.085797	1.671578	-0.026982	3.468857
180.938805	3690.102635	1.676583	-0.027047	3.473539
181.365335	3701.122925	1.681588	-0.027130	3.478227
181.659769	3712.147083	1.686592	-0.027187	3.482895
182.154013	3723.145064	1.691597	-0.027283	3.487569
182.497352	3734.155520	1.696602	-0.027350	3.492224
182.877855	3745.185027	1.701606	-0.027424	3.496885
183.483905	3756.199506	1.706611	-0.027541	3.501559
183.772895	3767.231066	1.711616	-0.027598	3.506198
184.262670	3778.216892	1.716621	-0.027692	3.510835
184.599443	3789.269031	1.721625	-0.027758	3.515475
184.979087	3800.250081	1.726630	-0.027832	3.520085
185.367997	3811.302037	1.731635	-0.027908	3.524719
185.654555	3822.324322	1.736640	-0.027964	3.529323
186.041021	3833.317638	1.741644	-0.028040	3.533920
186.376036	3844.341802	1.746649	-0.028105	3.538518
186.802052	3855.328820	1.751654	-0.028188	3.543105
187.317637	3866.367634	1.756658	-0.028287	3.547717
187.708210	3877.360973	1.761663	-0.028363	3.552291
187.732278	3888.420437	1.766668	-0.028371	3.556845
188.190209	3899.413911	1.771673	-0.028459	3.561414
188.559995	3910.428859	1.776677	-0.028531	3.565976
188.985158	3921.441106	1.781682	-0.028614	3.570537
189.180906	3932.455310	1.786687	-0.028653	3.575068
189.789232	3943.458754	1.791692	-0.028770	3.579634
190.073194	3954.498548	1.796696	-0.028826	3.584173
190.516410	3965.503150	1.801701	-0.028912	3.588710
190.999883	3976.506733	1.806706	-0.029006	3.593245
191.584087	3987.556929	1.811710	-0.029118	3.597803
191.895827	3998.537393	1.816715	-0.029179	3.602298
192.387179	4009.579527	1.821720	-0.029274	3.606832
192.625938	4020.595223	1.826725	-0.029322	3.611322
193.232282	4031.573556	1.831729	-0.029438	3.615831
193.640755	4042.615530	1.836734	-0.029517	3.620339
194.201220	4053.628273	1.841739	-0.029625	3.624845
194.467931	4064.650076	1.846744	-0.029678	3.629318
194.890058	4075.667899	1.851748	-0.029760	3.633800
195.396647	4086.678956	1.856753	-0.029858	3.638283
195.915988	4097.728680	1.861758	-0.029958	3.642777
196.338026	4108.744972	1.866762	-0.030040	3.647242
196.742897	4119.767968	1.871767	-0.030119	3.651702
196.695156	4130.810645	1.876772	-0.030112	3.656117
197.217878	4141.791026	1.881777	-0.030213	3.660561
197.680540	4152.824449	1.886781	-0.030303	3.665015
198.207648	4163.819566	1.891786	-0.030404	3.669455
198.583732	4174.859381	1.896791	-0.030478	3.673891
199.168259	4185.861505	1.901795	-0.030590	3.678329
199.438534	4196.900564	1.906800	-0.030644	3.682743
199.781959	4207.924573	1.911805	-0.030711	3.687154
200.074524	4218.887075	1.916810	-0.030768	3.691529
200.657626	4229.925275	1.921814	-0.030880	3.695959
200.975525	4240.937195	1.926819	-0.030943	3.700346
201.575767	4251.968994	1.931824	-0.031058	3.704765
201.858789	4262.962990	1.936829	-0.031114	3.709131
202.253876	4274.002978	1.941833	-0.031191	3.713521
202.544449	4285.036610	1.946838	-0.031248	3.717892
203.045259	4296.013207	1.951843	-0.031345	3.722258
203.292673	4307.039962	1.956847	-0.031394	3.726612
203.680349	4318.032474	1.961852	-0.031469	3.730962
204.042669	4329.079785	1.966857	-0.031540	3.735326
204.582787	4340.076974	1.971862	-0.031644	3.739682
204.796937	4351.123353	1.976866	-0.031687	3.744021
