Wed Nov 23 17:31:11 2022

Number of Points = 2200
Depth (nm)	Load (µN)	Time (s)	Depth (V)	Load (V)
-1.608084	1.319988	0.000000	0.045808	0.923516
0.000000	7.175519	0.005005	0.045505	0.933785
2.171207	15.970185	0.010009	0.045096	0.948857
3.916169	26.572294	0.015014	0.044766	0.966216
5.375110	37.686146	0.020019	0.044489	0.983877
6.441507	48.907069	0.025024	0.044286	1.001169
7.435819	60.143587	0.030028	0.044097	1.018150
8.171240	71.348339	0.035033	0.043956	1.034670
8.795745	82.581336	0.040038	0.043836	1.050912
9.260527	93.772421	0.045043	0.043746	1.066766
9.940177	104.883641	0.050047	0.043616	1.082386
10.319184	116.081656	0.055052	0.043542	1.097752
10.744746	127.205293	0.060057	0.043459	1.112829
11.008830	138.375661	0.065061	0.043407	1.127688
11.361832	149.500624	0.070066	0.043338	1.142337
11.785759	160.583501	0.075071	0.043256	1.156779
12.021747	171.747712	0.080076	0.043209	1.171059
12.413966	182.823812	0.085080	0.043132	1.185128
12.933207	193.900127	0.090085	0.043032	1.199089
21.025754	202.957434	0.095090	0.041511	1.213810
27.190795	215.080316	0.100094	0.040352	1.231181
27.842861	227.000253	0.105099	0.040226	1.245679
28.942579	238.167435	0.110104	0.040017	1.259318
30.229307	249.267495	0.115109	0.039773	1.272812
31.190130	260.398818	0.120113	0.039590	1.286063
32.231519	271.480426	0.125118	0.039392	1.299155
33.589761	282.573868	0.130123	0.039134	1.312258
34.572686	293.672586	0.135128	0.038947	1.325085
35.643285	304.723215	0.140132	0.038743	1.337771
36.849377	315.777768	0.145137	0.038514	1.350394
38.191471	326.843822	0.150142	0.038260	1.362966
39.004900	338.017109	0.155146	0.038104	1.375332
39.612380	349.149460	0.160151	0.037988	1.387464
40.624834	360.152009	0.165156	0.037795	1.399508
41.269779	371.262841	0.170161	0.037671	1.411423
42.197124	382.300667	0.175165	0.037494	1.423268
43.116768	393.362808	0.180170	0.037319	1.435036
44.107194	404.420934	0.185175	0.037131	1.446731
45.111454	415.487258	0.190180	0.036939	1.458344
45.939558	426.561675	0.195184	0.036781	1.469809
46.865151	437.636795	0.200189	0.036605	1.481221
47.493089	448.731176	0.205194	0.036484	1.492458
48.342483	459.767434	0.210198	0.036322	1.503632
49.132823	470.824453	0.215203	0.036171	1.514723
49.858632	481.906142	0.220208	0.036032	1.525734
50.700229	492.950362	0.225213	0.035872	1.536670
51.832370	503.957389	0.230217	0.035656	1.547591
52.420278	515.076652	0.235222	0.035543	1.558358
53.523207	526.066750	0.240227	0.035334	1.569101
54.142569	537.197844	0.245232	0.035215	1.579742
54.960689	548.194028	0.250236	0.035058	1.590251
56.108085	559.204880	0.255241	0.034840	1.600813
57.080955	570.299039	0.260246	0.034655	1.611325
57.940037	581.381560	0.265250	0.034491	1.621720
58.536627	592.453125	0.270255	0.034377	1.631955
59.163923	603.501359	0.275260	0.034256	1.642114
60.292682	614.450682	0.280265	0.034042	1.652281
61.033803	625.591747	0.285269	0.033900	1.662433
61.657644	636.638057	0.290274	0.033780	1.672403
62.336748	647.681059	0.295279	0.033650	1.682328
63.109801	658.717459	0.300283	0.033502	1.692217
63.850410	669.763478	0.305288	0.033360	1.702047
64.809373	680.767370	0.310293	0.033178	1.711851
65.631162	691.840294	0.315298	0.033021	1.721616
66.418069	702.888431	0.320302	0.032870	1.731294
66.923354	713.980925	0.325307	0.032773	1.740870
67.862257	724.929041	0.330312	0.032594	1.750402
68.752025	736.004661	0.335317	0.032424	1.759974
69.625400	747.061985	0.340321	0.032258	1.769473
70.155971	758.142161	0.345326	0.032155	1.778840
71.118060	769.111880	0.350331	0.031972	1.788192
71.832649	780.184453	0.355335	0.031835	1.797508
72.838568	791.175401	0.360340	0.031644	1.806793
73.826083	802.243369	0.365345	0.031456	1.816086
74.553894	813.294760	0.370350	0.031316	1.825245
75.305711	824.338745	0.375354	0.031173	1.834359
75.969812	835.412616	0.380359	0.031045	1.843427
76.497021	846.439896	0.385364	0.030944	1.852375
77.494833	857.436802	0.390369	0.030754	1.861385
78.134290	868.500373	0.395373	0.030631	1.870306
78.841822	879.542427	0.400378	0.030495	1.879186
79.591819	890.566411	0.405383	0.030352	1.888021
80.392032	901.608216	0.410387	0.030199	1.896843
80.901043	912.665360	0.415392	0.030101	1.905556
81.540724	923.696655	0.420397	0.029978	1.914245
81.980095	934.767657	0.425402	0.029893	1.922871
82.590370	945.761991	0.430406	0.029776	1.931445
83.345689	956.771860	0.435411	0.029631	1.940031
83.956888	967.843929	0.440416	0.029514	1.948589
84.473174	978.874346	0.445421	0.029414	1.957052
85.037404	989.900232	0.450425	0.029306	1.965488
86.014638	1000.879433	0.455430	0.029119	1.973959
86.818996	1011.931885	0.460435	0.028966	1.982404
87.335493	1023.019718	0.465439	0.028866	1.990765
88.244104	1034.009948	0.470444	0.028693	1.999119
88.805526	1045.076223	0.475449	0.028585	2.007405
89.540159	1056.099702	0.480454	0.028444	2.015670
90.127501	1067.135938	0.485458	0.028331	2.023873
90.913135	1078.154553	0.490463	0.028181	2.032079
91.399709	1089.222155	0.495468	0.028087	2.040213
92.024271	1100.234455	0.500472	0.027967	2.048309
92.586549	1111.272205	0.505477	0.027859	2.056376
93.160316	1122.282505	0.510482	0.027749	2.064394
93.676384	1133.329937	0.515487	0.027649	2.072393
94.440556	1144.349484	0.520491	0.027503	2.080401
95.093891	1155.376093	0.525496	0.027378	2.088357
95.854742	1166.419542	0.530501	0.027232	2.096320
96.422419	1177.444190	0.535506	0.027123	2.104193
97.000469	1188.449758	0.540510	0.027012	2.112026
97.758653	1199.504664	0.545515	0.026867	2.119907
98.402556	1210.517981	0.550520	0.026743	2.127702
98.991513	1221.581171	0.555524	0.026630	2.135490
99.541434	1232.586526	0.560529	0.026524	2.143201
100.009258	1243.638982	0.565534	0.026433	2.150897
100.539430	1254.646290	0.570539	0.026331	2.158549
100.977842	1265.706134	0.575543	0.026246	2.166188
101.513244	1276.710843	0.580548	0.026143	2.173786
102.127091	1287.735894	0.585553	0.026025	2.181388
102.758172	1298.753890	0.590558	0.025904	2.188963
103.366318	1309.794965	0.595562	0.025787	2.196521
103.783348	1320.824063	0.600567	0.025706	2.204003
104.442953	1331.837512	0.605572	0.025580	2.211503
104.832102	1342.905604	0.610576	0.025504	2.218953
105.477386	1353.886502	0.615581	0.025380	2.226377
106.194579	1364.907512	0.620586	0.025243	2.233819
106.740737	1375.956540	0.625591	0.025138	2.241217
107.583007	1386.953898	0.630595	0.024977	2.248621
107.908140	1398.059581	0.635600	0.024913	2.255958
108.231541	1409.059194	0.640605	0.024850	2.263202
108.872965	1420.030248	0.645610	0.024727	2.270473
109.480531	1431.087487	0.650614	0.024610	2.277769
109.994563	1442.112002	0.655619	0.024511	2.285001
110.503694	1453.146502	0.660624	0.024412	2.292214
110.754677	1464.197008	0.665628	0.024363	2.299360
111.330311	1475.161160	0.670633	0.024252	2.306498
112.170735	1486.188477	0.675638	0.024091	2.313710
112.918851	1497.210006	0.680643	0.023948	2.320876
113.460734	1508.277669	0.685647	0.023844	2.328005
113.883718	1519.306083	0.690652	0.023762	2.335063
114.460262	1530.300220	0.695657	0.023651	2.342110
115.189386	1541.311902	0.700661	0.023511	2.349178
115.480587	1552.401650	0.705666	0.023454	2.356183
115.886682	1563.403963	0.710671	0.023375	2.363136
116.345577	1574.415840	0.715676	0.023286	2.370085
116.752017	1585.461730	0.720680	0.023207	2.377025
117.212603	1596.462799	0.725685	0.023118	2.383927
117.794724	1607.475890	0.730690	0.023006	2.390841
118.164392	1618.530822	0.735695	0.022934	2.397718
118.652838	1629.539208	0.740699	0.022840	2.404571
119.078436	1640.566960	0.745704	0.022757	2.411403
119.784539	1651.559542	0.750709	0.022622	2.418250
120.267320	1662.605551	0.755713	0.022528	2.425066
120.632412	1673.650875	0.760718	0.022457	2.431838
120.891552	1684.686578	0.765723	0.022406	2.438565
121.434681	1695.657260	0.770728	0.022301	2.445290
121.855396	1706.720342	0.775732	0.022220	2.452028
122.232169	1717.740011	0.780737	0.022146	2.458713
122.699367	1728.734822	0.785742	0.022056	2.465382
123.474891	1739.731221	0.790747	0.021907	2.472094
124.072677	1750.801925	0.795751	0.021793	2.478797
124.637675	1761.787996	0.800756	0.021684	2.485426
124.982167	1772.880523	0.805761	0.021616	2.492057
125.412453	1783.872179	0.810765	0.021533	2.498627
125.831090	1794.875943	0.815770	0.021452	2.505185
126.219247	1805.927038	0.820775	0.021376	2.511748
126.583394	1816.949735	0.825780	0.021305	2.518272
127.066860	1827.939044	0.830784	0.021212	2.524782
127.507927	1838.985904	0.835789	0.021126	2.531301
128.067044	1849.967183	0.840794	0.021019	2.537787
128.565338	1861.018595	0.845799	0.020922	2.544286
129.368604	1871.992332	0.850803	0.020769	2.550780
130.150416	1883.050347	0.855808	0.020619	2.557301
130.807531	1894.059973	0.860813	0.020493	2.563755
131.103052	1905.136591	0.865817	0.020435	2.570165
131.508732	1916.186967	0.870822	0.020356	2.576563
132.024842	1927.153746	0.875827	0.020257	2.582918
132.576927	1938.143824	0.880832	0.020150	2.589277
133.096340	1949.188684	0.885836	0.020050	2.595645
133.593968	1960.212661	0.890841	0.019954	2.601982
134.095912	1971.236825	0.895846	0.019857	2.608305
134.548782	1982.234015	0.900850	0.019770	2.614587
135.061970	1993.297048	0.905855	0.019671	2.620903
135.463258	2004.277296	0.910860	0.019593	2.627136
136.116793	2015.320300	0.915865	0.019467	2.633435
136.573779	2026.331336	0.920869	0.019379	2.639666
136.996857	2037.362423	0.925874	0.019297	2.645887
137.439454	2048.377836	0.930879	0.019211	2.652088
138.169501	2059.359990	0.935884	0.019071	2.658307
138.735886	2070.384149	0.940888	0.018962	2.664505
139.118701	2081.439816	0.945893	0.018887	2.670674
139.456868	2092.424476	0.950898	0.018821	2.676782
139.894294	2103.497069	0.955902	0.018737	2.682941
140.411133	2114.443935	0.960907	0.018637	2.689031
140.964151	2125.510002	0.965912	0.018530	2.695179
141.249608	2136.534882	0.970917	0.018474	2.701244
141.663847	2147.546518	0.975921	0.018394	2.707310
142.051284	2158.576892	0.980926	0.018318	2.713368
142.695037	2169.555612	0.985931	0.018195	2.719428
143.164204	2180.595597	0.990936	0.018104	2.725478
143.654226	2191.640828	0.995940	0.018009	2.731520
144.179913	2202.629101	1.000945	0.017908	2.737525
144.638891	2213.671865	1.005950	0.017819	2.743534
145.021159	2224.679545	1.010954	0.017744	2.749498
145.421294	2235.715944	1.015959	0.017667	2.755468
145.869844	2246.727058	1.020964	0.017580	2.761419
146.418926	2257.746859	1.025969	0.017474	2.767379
146.721433	2268.770024	1.030973	0.017415	2.773286
147.145066	2279.779803	1.035978	0.017332	2.779194
147.689906	2290.783368	1.040983	0.017227	2.785106
148.190418	2301.848503	1.045988	0.017131	2.791030
148.546552	2312.830915	1.050992	0.017061	2.796874
149.200314	2323.854620	1.055997	0.016936	2.802777
149.644010	2334.879570	1.061002	0.016850	2.808633
149.963724	2345.920058	1.066006	0.016787	2.814465
150.212724	2356.951369	1.071011	0.016738	2.820269
150.783148	2367.913762	1.076016	0.016628	2.826076
151.008478	2378.999182	1.081021	0.016583	2.831880
151.246909	2389.977164	1.086025	0.016535	2.837618
151.855320	2400.975347	1.091030	0.016418	2.843414
152.557180	2412.011335	1.096035	0.016284	2.849233
152.912078	2423.028928	1.101039	0.016215	2.854975
153.426403	2434.078188	1.106044	0.016116	2.860747
153.675610	2445.065517	1.111049	0.016066	2.866434
154.318178	2456.105504	1.116054	0.015943	2.872198
154.770354	2467.097608	1.121058	0.015855	2.877896
155.183173	2478.145547	1.126063	0.015775	2.883605
155.487364	2489.168337	1.131068	0.015715	2.889272
155.968570	2500.191357	1.136073	0.015622	2.894957
156.357974	2511.193996	1.141077	0.015546	2.900605
156.645088	2522.218433	1.146082	0.015490	2.906237
157.141400	2533.215397	1.151087	0.015394	2.911877
157.444308	2544.250077	1.156091	0.015334	2.917495
158.158074	2555.237305	1.161096	0.015198	2.923142
158.499326	2566.312462	1.166101	0.015131	2.928764
158.952861	2577.289152	1.171106	0.015043	2.934343
159.473177	2588.323678	1.176110	0.014943	2.939951
159.829269	2599.333619	1.181115	0.014873	2.945511
160.259470	2610.374800	1.186120	0.014790	2.951087
160.554306	2621.369959	1.191125	0.014732	2.956609
161.025153	2632.406756	1.196129	0.014641	2.962167
161.360968	2643.415729	1.201134	0.014575	2.967681
161.768905	2654.440747	1.206139	0.014496	2.973204
162.170475	2665.453266	1.211143	0.014417	2.978709
162.792081	2676.450476	1.216148	0.014298	2.984229
163.163947	2687.504236	1.221153	0.014226	2.989729
163.374823	2698.519957	1.226158	0.014183	2.995177
163.678550	2709.534981	1.231162	0.014124	3.000628
164.086926	2720.547147	1.236167	0.014044	3.006083
164.514351	2731.564459	1.241172	0.013961	3.011533
164.753106	2742.577637	1.246177	0.013914	3.016944
165.315818	2753.567414	1.251181	0.013805	3.022381
165.874618	2764.620547	1.256186	0.013698	3.027838
166.181610	2775.643589	1.261191	0.013638	3.033234
166.595040	2786.657300	1.266195	0.013557	3.038632
167.016013	2797.653914	1.271200	0.013476	3.044012
167.496053	2808.703267	1.276205	0.013383	3.049417
167.827500	2819.702398	1.281210	0.013318	3.054767
168.294845	2830.724134	1.286214	0.013227	3.060137
168.607595	2841.742227	1.291219	0.013166	3.065474
169.120297	2852.764628	1.296224	0.013067	3.070832
169.479969	2863.779916	1.301228	0.012997	3.076156
169.751027	2874.816827	1.306233	0.012943	3.081468
170.080670	2885.814410	1.311238	0.012879	3.086761
170.578628	2896.815411	1.316243	0.012783	3.092069
170.988659	2907.844175	1.321247	0.012703	3.097369
171.288484	2918.874868	1.326252	0.012644	3.102646
171.659585	2929.878513	1.331257	0.012571	3.107911
172.144006	2940.902741	1.336262	0.012478	3.113192
172.813886	2951.902038	1.341266	0.012349	3.118478
173.071880	2962.948749	1.346271	0.012298	3.123720
173.367141	2973.981396	1.351276	0.012240	3.128952
173.958614	2984.945610	1.356280	0.012126	3.134184
174.364379	2995.980738	1.361285	0.012048	3.139414
174.761396	3007.030601	1.366290	0.011970	3.144642
174.974696	3018.046912	1.371295	0.011928	3.149820
175.145738	3029.053123	1.376299	0.011893	3.154979
175.544837	3040.051620	1.381304	0.011815	3.160156
176.036093	3051.083256	1.386309	0.011720	3.165354
176.264726	3062.113442	1.391314	0.011675	3.170506
176.761939	3073.102213	1.396318	0.011579	3.175667
177.111863	3084.111866	1.401323	0.011510	3.180809
177.552572	3095.149748	1.406328	0.011425	3.185968
177.908899	3106.172990	1.411332	0.011355	3.191101
178.313936	3117.188643	1.416337	0.011276	3.196228
178.682316	3128.195690	1.421342	0.011205	3.201338
179.062358	3139.229572	1.426347	0.011131	3.206454
179.518115	3150.206324	1.431351	0.011042	3.211545
180.058581	3161.244693	1.436356	0.010938	3.216668
180.548754	3172.244658	1.441361	0.010844	3.221758
180.845835	3183.301270	1.446366	0.010785	3.226840
181.196161	3194.306715	1.451370	0.010717	3.231898
181.437791	3205.328167	1.456375	0.010669	3.236941
181.882961	3216.309712	1.461380	0.010582	3.241985
182.348455	3227.364997	1.466384	0.010492	3.247056
182.558444	3238.368007	1.471389	0.010450	3.252063
182.991175	3249.403638	1.476394	0.010366	3.257106
183.421250	3260.367545	1.481399	0.010283	3.262108
184.039650	3271.425056	1.486403	0.010164	3.267169
184.573742	3282.417537	1.491408	0.010061	3.272181
185.085132	3293.464536	1.496413	0.009962	3.277208
185.559949	3304.457951	1.501417	0.009870	3.282198
185.770778	3315.544061	1.506422	0.009828	3.287188
185.931247	3326.489668	1.511427	0.009795	3.292101
186.350679	3337.520691	1.516432	0.009714	3.297077
186.686584	3348.545645	1.521436	0.009648	3.302033
187.028755	3359.569565	1.526441	0.009581	3.306982
187.204695	3370.576771	1.531446	0.009546	3.311895
187.607364	3381.599434	1.536451	0.009467	3.316836
188.033518	3392.575137	1.541455	0.009385	3.321751
188.513191	3403.651230	1.546460	0.009292	3.326711
188.949009	3414.608202	1.551465	0.009207	3.331604
189.375712	3425.665061	1.556469	0.009125	3.336534
189.696061	3436.657383	1.561474	0.009062	3.341414
190.196953	3447.708164	1.566479	0.008965	3.346335
190.349834	3458.715253	1.571484	0.008934	3.351187
190.848616	3469.702193	1.576488	0.008837	3.356065
191.229639	3480.744493	1.581493	0.008763	3.360946
191.637849	3491.759119	1.586498	0.008684	3.365811
191.975778	3502.766895	1.591503	0.008618	3.370657
192.143003	3513.808681	1.596507	0.008583	3.375491
192.371329	3524.799786	1.601512	0.008538	3.380302
192.742577	3535.835007	1.606517	0.008465	3.385143
193.062181	3546.833179	1.611521	0.008403	3.389955
193.574602	3557.851749	1.616526	0.008304	3.394793
193.892083	3568.872421	1.621531	0.008242	3.399600
194.143245	3579.920287	1.626536	0.008192	3.404405
194.546160	3590.894624	1.631540	0.008113	3.409189
194.893676	3601.924125	1.636545	0.008045	3.413983
195.461247	3612.920567	1.641550	0.007936	3.418783
195.898391	3623.960548	1.646555	0.007851	3.423579
196.083882	3634.955996	1.651559	0.007814	3.428319
196.389229	3645.991185	1.656564	0.007754	3.433084
196.761394	3657.013257	1.661569	0.007681	3.437844
197.197626	3668.010559	1.666573	0.007597	3.442595
197.486024	3679.045325	1.671578	0.007540	3.447338
197.823070	3690.052060	1.676583	0.007474	3.452068
198.140207	3701.065025	1.681588	0.007412	3.456791
198.553662	3712.099880	1.686592	0.007331	3.461529
198.893126	3723.097008	1.691597	0.007265	3.466235
199.403790	3734.102839	1.696602	0.007166	3.470959
199.816299	3745.109790	1.701606	0.007086	3.475665
200.332163	3756.162066	1.706611	0.006987	3.480396
200.705707	3767.168241	1.711616	0.006914	3.485084
201.222071	3778.168979	1.716621	0.006814	3.489780
201.649306	3789.192352	1.721625	0.006731	3.494469
202.141898	3800.210829	1.726630	0.006636	3.499157
202.259575	3811.233849	1.731635	0.006612	3.503798
202.647333	3822.259737	1.736640	0.006536	3.508464
203.033648	3833.241363	1.741644	0.006461	3.513106
203.535052	3844.280504	1.746649	0.006364	3.517778
203.871336	3855.283943	1.751654	0.006298	3.522410
204.322651	3866.326358	1.756658	0.006211	3.527066
204.435561	3877.333873	1.761663	0.006187	3.531663
204.723849	3888.351086	1.766668	0.006130	3.536277
204.907108	3899.365530	1.771673	0.006093	3.540872
205.162062	3910.384087	1.776677	0.006042	3.545471
205.517788	3921.380891	1.781682	0.005973	3.550066
205.882885	3932.407865	1.786687	0.005902	3.554669
205.946774	3943.431688	1.791692	0.005887	3.559231
206.444907	3954.432923	1.796696	0.005791	3.563826
206.913306	3965.451514	1.801701	0.005700	3.568419
207.397818	3976.473568	1.806706	0.005606	3.573009
207.579840	3987.491949	1.811710	0.005570	3.577558
207.996814	3998.494184	1.816715	0.005489	3.582120
208.298519	4009.507445	1.821720	0.005429	3.586669
208.754680	4020.547001	1.826725	0.005341	3.591239
208.909153	4031.561817	1.831729	0.005309	3.595760
209.364729	4042.543054	1.836734	0.005221	3.600295
209.628876	4053.594253	1.841739	0.005169	3.604832
210.072606	4064.583348	1.846744	0.005083	3.609357
210.328038	4075.611464	1.851748	0.005032	3.613871
211.087565	4086.604012	1.856753	0.004887	3.618420
211.456577	4097.693348	1.861758	0.004815	3.622961
212.024125	4108.709526	1.866762	0.004706	3.627487
212.184015	4119.715389	1.871767	0.004673	3.631960
212.741837	4130.741546	1.876772	0.004566	3.636478
212.999962	4141.743664	1.881777	0.004514	3.640948
213.503260	4152.772936	1.886781	0.004417	3.645450
213.582280	4163.801956	1.891786	0.004400	3.649901
214.118348	4174.786807	1.896791	0.004296	3.654377
214.348182	4185.825120	1.901795	0.004250	3.658837
214.634558	4196.838090	1.906800	0.004194	3.663287
214.909495	4207.876290	1.911805	0.004140	3.667741
214.963869	4218.871399	1.916810	0.004127	3.672148
215.252294	4229.885527	1.921814	0.004070	3.676583
215.783365	4240.887140	1.926819	0.003968	3.681032
215.912794	4251.920793	1.931824	0.003941	3.685447
216.216100	4262.923875	1.936829	0.003881	3.689863
216.476103	4273.953291	1.941833	0.003829	3.694279
216.925462	4284.934917	1.946838	0.003742	3.698690
217.228757	4295.993318	1.951843	0.003683	3.703111
217.635407	4306.973680	1.956847	0.003604	3.707507
217.865449	4318.014962	1.961852	0.003558	3.711904
218.312682	4329.020985	1.966857	0.003471	3.716303
218.728823	4340.020053	1.971862	0.003390	3.720691
218.964182	4351.072231	1.976866	0.003343	3.725077
219.478284	4362.036899	1.981871	0.003244	3.729451
219.877368	4373.081155	1.986876	0.003167	3.733840
220.410922	4384.073013	1.991881	0.003064	3.738216
220.706097	4395.126250	1.996885	0.003006	3.742587
221.044844	4406.151966	2.001890	0.002939	3.746947
221.439536	4417.099871	2.006895	0.002863	3.751276
