Wed Nov 23 17:31:11 2022

Number of Points = 2200
Depth (nm)	Load (µN)	Time (s)	Depth (V)	Load (V)
-1.010988	0.961723	0.000000	0.062874	0.866993
0.000000	6.927681	0.005005	0.062683	0.877761
1.274423	15.708444	0.010009	0.062442	0.893242
2.660179	26.134650	0.015014	0.062179	0.911203
3.624629	37.206652	0.020019	0.061995	0.929596
4.429155	48.428108	0.025024	0.061842	0.947772
5.193922	59.636683	0.030028	0.061695	0.965563
5.902889	70.871759	0.035033	0.061559	0.983039
6.635436	82.048490	0.040038	0.061419	1.000137
7.189577	93.253442	0.045043	0.061312	1.016891
7.786501	104.426224	0.050047	0.061198	1.033350
8.476958	115.563099	0.055052	0.061065	1.049548
9.001619	126.767771	0.060057	0.060964	1.065509
9.521061	137.908303	0.065061	0.060864	1.081143
10.090695	149.056102	0.070066	0.060754	1.096588
10.533367	160.196627	0.075071	0.060668	1.111747
10.891206	171.360138	0.080076	0.060599	1.126691
11.358447	182.480449	0.085080	0.060508	1.141434
11.849441	193.566838	0.090085	0.060413	1.155957
12.235775	204.709354	0.095090	0.060338	1.170322
12.853109	215.781792	0.100094	0.060219	1.184531
13.186033	226.952260	0.105099	0.060154	1.198564
13.442888	238.064499	0.110104	0.060103	1.212328
16.786542	248.123304	0.115109	0.059473	1.226031
34.429236	256.987575	0.120113	0.056161	1.244390
35.063914	270.756566	0.125118	0.056038	1.260929
35.574495	282.347106	0.130123	0.055940	1.274676
36.179862	293.504656	0.135128	0.055823	1.287817
37.008367	304.620251	0.140132	0.055665	1.300870
37.716313	315.684169	0.145137	0.055529	1.313685
38.599579	326.732358	0.150142	0.055361	1.326430
39.627268	337.774383	0.155146	0.055165	1.339104
40.388806	348.888168	0.160151	0.055020	1.351631
41.364276	359.962782	0.165156	0.054834	1.364084
42.128170	371.044848	0.170161	0.054688	1.376350
43.141985	382.099912	0.175165	0.054495	1.388574
44.087487	393.169148	0.180170	0.054315	1.400680
45.198734	404.209142	0.185175	0.054103	1.412714
46.122753	415.304747	0.190180	0.053927	1.424633
47.142314	426.379031	0.195184	0.053733	1.436467
47.965029	437.449558	0.200189	0.053576	1.448126
49.032435	448.516942	0.205194	0.053373	1.459778
49.876407	459.593634	0.210198	0.053212	1.471266
50.952472	470.600227	0.215203	0.053007	1.482677
52.342286	481.635858	0.220208	0.052744	1.494142
53.335138	492.736936	0.225213	0.052555	1.505442
54.379125	503.840448	0.230217	0.052356	1.516678
55.039275	514.933134	0.235222	0.052230	1.527686
56.056776	525.933493	0.240227	0.052036	1.538650
56.819644	537.025231	0.245232	0.051890	1.549536
57.812736	548.043270	0.250236	0.051701	1.560354
58.818284	559.098585	0.255241	0.051510	1.571136
59.709989	570.173963	0.260246	0.051339	1.581825
60.458371	581.249238	0.265250	0.051196	1.592394
61.142701	592.321327	0.270255	0.051065	1.602869
61.754234	603.376817	0.275260	0.050948	1.613236
62.624841	614.404085	0.280265	0.050782	1.623595
63.447098	625.447142	0.285269	0.050625	1.633887
63.940134	636.562497	0.290274	0.050529	1.644074
64.618992	647.565234	0.295279	0.050399	1.654156
65.399901	658.597861	0.300283	0.050250	1.664235
66.053110	669.671284	0.305288	0.050125	1.674250
66.810141	680.693934	0.310293	0.049980	1.684192
67.709542	691.709624	0.315298	0.049808	1.694113
68.483508	702.802661	0.320302	0.049660	1.704005
69.092567	713.841371	0.325307	0.049543	1.713742
69.737336	724.908100	0.330312	0.049420	1.723459
70.484600	735.905133	0.335317	0.049277	1.733092
71.021957	747.003778	0.340321	0.049173	1.742695
71.854992	757.996612	0.345326	0.049014	1.752244
72.438486	769.081893	0.350331	0.048902	1.761744
73.258112	780.070037	0.355335	0.048745	1.771181
73.986277	791.158613	0.360340	0.048606	1.780625
74.465794	802.195582	0.365345	0.048513	1.789904
75.218410	813.215074	0.370350	0.048369	1.799199
75.913129	824.235095	0.375354	0.048236	1.808430
76.657887	835.318263	0.380359	0.048094	1.817679
77.416999	846.320821	0.385364	0.047949	1.826820
78.261455	857.365586	0.390369	0.047787	1.835973
78.855915	868.415676	0.395373	0.047673	1.845015
79.550537	879.469758	0.400378	0.047540	1.854043
80.367185	890.488361	0.405383	0.047384	1.863033
80.954975	901.529899	0.410387	0.047271	1.871934
81.646074	912.573865	0.415392	0.047139	1.880823
82.499730	923.582119	0.420397	0.046976	1.889686
83.092153	934.658983	0.425402	0.046862	1.898491
83.661490	945.696755	0.430406	0.046752	1.907217
84.383254	956.710334	0.435411	0.046614	1.915926
84.940465	967.737061	0.440416	0.046507	1.924562
85.921706	978.752160	0.445421	0.046320	1.933262
86.543727	989.838589	0.450425	0.046201	1.941882
87.123687	1000.843958	0.455430	0.046089	1.950392
87.588321	1011.930520	0.460435	0.045999	1.958895
88.254955	1022.916818	0.465439	0.045871	1.967339
88.986029	1033.948055	0.470444	0.045731	1.975796
89.761940	1044.966316	0.475449	0.045583	1.984219
90.236093	1056.068959	0.480454	0.045491	1.992592
90.757450	1067.078754	0.485458	0.045391	2.000873
91.346835	1078.113097	0.490463	0.045277	2.009154
92.063558	1089.105187	0.495468	0.045140	2.017403
92.806884	1100.151072	0.500472	0.044998	2.025663
93.492938	1111.196854	0.505477	0.044867	2.033875
93.836319	1122.264158	0.510482	0.044799	2.041985
94.224709	1133.306368	0.515487	0.044724	2.050055
95.094879	1144.231445	0.520491	0.044558	2.058128
95.668300	1155.345555	0.525496	0.044447	2.066231
96.253455	1166.354690	0.530501	0.044335	2.074231
96.693808	1177.400890	0.535506	0.044250	2.082191
97.180246	1188.433412	0.540510	0.044156	2.090122
97.765623	1199.451745	0.545515	0.044043	2.098036
98.355491	1210.454765	0.550520	0.043930	2.105911
98.952258	1221.510486	0.555524	0.043815	2.113795
99.505316	1232.531143	0.560529	0.043708	2.121614
100.012220	1243.579288	0.565534	0.043610	2.129413
100.496522	1254.595507	0.570539	0.043517	2.137155
101.172684	1265.611677	0.575543	0.043387	2.144914
101.863614	1276.626453	0.580548	0.043255	2.152648
102.413384	1287.696421	0.585553	0.043149	2.160358
102.737495	1298.729449	0.590558	0.043085	2.167964
103.191544	1309.778996	0.595562	0.042998	2.175584
103.652685	1320.753824	0.600567	0.042908	2.183129
104.411735	1331.763550	0.605572	0.042763	2.190738
105.320890	1342.775481	0.610576	0.042590	2.198357
105.855042	1353.860961	0.615581	0.042487	2.205913
106.198809	1364.891452	0.620586	0.042420	2.213364
106.806204	1375.891128	0.625591	0.042303	2.220828
107.433477	1386.898639	0.630595	0.042182	2.228277
108.231935	1397.950324	0.635600	0.042030	2.235767
108.879864	1408.966562	0.640605	0.041906	2.243176
109.277169	1420.049518	0.645610	0.041828	2.250549
109.684670	1431.050112	0.650614	0.041749	2.257846
110.286006	1442.051013	0.655619	0.041634	2.265162
110.720792	1453.099829	0.660624	0.041549	2.272449
111.076481	1464.138785	0.665628	0.041480	2.279688
111.729155	1475.124814	0.670633	0.041355	2.286935
112.096311	1486.202363	0.675638	0.041283	2.294156
112.583730	1497.161222	0.680643	0.041189	2.301304
113.028885	1508.252995	0.685647	0.041103	2.308506
113.501796	1519.213267	0.690652	0.041011	2.315607
114.201970	1530.275713	0.695657	0.040877	2.322800
114.669537	1541.286177	0.700661	0.040786	2.329887
115.267400	1552.318771	0.705666	0.040672	2.336995
115.673013	1563.350626	0.710671	0.040593	2.344040
116.302062	1574.351915	0.715676	0.040472	2.351091
116.883548	1585.383308	0.720680	0.040360	2.358130
117.162131	1596.460628	0.725685	0.040305	2.365114
117.735364	1607.422006	0.730690	0.040195	2.372066
118.242904	1618.480413	0.735695	0.040097	2.379043
118.732622	1629.470268	0.740699	0.040002	2.385955
119.365884	1640.519515	0.745704	0.039881	2.392911
119.853284	1651.532021	0.750709	0.039787	2.399796
120.250097	1662.583851	0.755713	0.039709	2.406666
120.520268	1673.623572	0.760718	0.039656	2.413484
121.030549	1684.584756	0.765723	0.039557	2.420282
121.946346	1695.587241	0.770728	0.039383	2.427168
122.374766	1706.672733	0.775732	0.039300	2.433987
122.814582	1717.662622	0.780737	0.039214	2.440731
123.108416	1728.757035	0.785742	0.039157	2.447491
123.548675	1739.726681	0.790747	0.039071	2.454186
124.059075	1750.735740	0.795751	0.038973	2.460900
124.774212	1761.748109	0.800756	0.038836	2.467637
125.239018	1772.812170	0.805761	0.038746	2.474338
125.573258	1783.832256	0.810765	0.038680	2.480969
125.982253	1794.853220	0.815770	0.038601	2.487598
126.458452	1805.883085	0.820775	0.038509	2.494226
127.001022	1816.882784	0.825780	0.038404	2.500832
127.410149	1827.892381	0.830784	0.038325	2.507401
127.914935	1838.958855	0.835789	0.038227	2.514004
128.044869	1849.964935	0.840794	0.038200	2.520483
128.840390	1860.957104	0.845799	0.038048	2.527063
129.336102	1872.014858	0.850803	0.037953	2.533608
129.871735	1882.992558	0.855808	0.037849	2.540096
130.425218	1894.036406	0.860813	0.037743	2.546610
131.240358	1905.064991	0.865817	0.037587	2.553146
131.533403	1916.096673	0.870822	0.037529	2.559571
131.762671	1927.133103	0.875827	0.037484	2.565970
132.184886	1938.153719	0.880832	0.037402	2.572379
132.750110	1949.195363	0.885836	0.037293	2.578811
133.084983	1960.169967	0.890841	0.037227	2.585146
133.800994	1971.189215	0.895846	0.037090	2.591561
134.099907	1982.227300	0.900850	0.037031	2.597895
134.619050	1993.230327	0.905855	0.036931	2.604233
135.109983	2004.245068	0.910860	0.036836	2.610556
135.747603	2015.271756	0.915865	0.036714	2.616898
136.643834	2026.266605	0.920869	0.036543	2.623253
137.131641	2037.325650	0.925874	0.036449	2.629555
137.381677	2048.355425	0.930879	0.036399	2.635783
137.992396	2059.337858	0.935884	0.036282	2.642034
138.302944	2070.364699	0.940888	0.036221	2.648241
138.859460	2081.386348	0.945893	0.036114	2.654474
139.092695	2092.430620	0.950898	0.036067	2.660648
139.576052	2103.413971	0.955902	0.035974	2.666818
140.101805	2114.431417	0.960907	0.035872	2.673000
140.818780	2125.450063	0.965912	0.035735	2.679202
141.233028	2136.488953	0.970917	0.035655	2.685347
141.563380	2147.540408	0.975921	0.035590	2.691471
141.842666	2158.547458	0.980926	0.035535	2.697547
142.438793	2169.526362	0.985931	0.035420	2.703649
142.725254	2180.593180	0.990936	0.035364	2.709732
143.133419	2191.592219	0.995940	0.035285	2.715785
143.621281	2202.610186	1.000945	0.035190	2.721848
144.218305	2213.637987	1.005950	0.035076	2.727921
144.505115	2224.666781	1.010954	0.035019	2.733929
144.782581	2235.674448	1.015959	0.034964	2.739910
145.408499	2246.664374	1.020964	0.034844	2.745928
145.909309	2257.739467	1.025969	0.034747	2.751957
146.066092	2268.740283	1.030973	0.034715	2.757875
146.478782	2279.748440	1.035978	0.034635	2.763827
147.012529	2290.775750	1.040983	0.034532	2.769797
147.482851	2301.796861	1.045988	0.034441	2.775739
147.913418	2312.811645	1.050992	0.034358	2.781659
148.339807	2323.841122	1.055997	0.034275	2.787574
148.652206	2334.854473	1.061002	0.034214	2.793448
149.086040	2345.866561	1.066006	0.034129	2.799329
149.520088	2356.893376	1.071011	0.034045	2.805206
150.171674	2367.896365	1.076016	0.033920	2.811093
150.462939	2378.966727	1.081021	0.033863	2.816944
150.854125	2389.939221	1.086025	0.033787	2.822748
151.267479	2400.946453	1.091030	0.033706	2.828562
151.774147	2411.995886	1.096035	0.033609	2.834401
152.191889	2423.027154	1.101039	0.033528	2.840204
152.436103	2434.026196	1.106044	0.033479	2.845950
152.879547	2445.054947	1.111049	0.033393	2.851732
153.381245	2456.057777	1.116054	0.033296	2.857498
153.868406	2467.064898	1.121058	0.033202	2.863252
154.400693	2478.095403	1.126063	0.033099	2.869014
154.587039	2489.161629	1.131068	0.033062	2.874728
154.936200	2500.143886	1.136073	0.032993	2.880412
155.339182	2511.160411	1.141077	0.032915	2.886112
155.981593	2522.191717	1.146082	0.032792	2.891845
156.181240	2533.216038	1.151087	0.032752	2.897494
156.497304	2544.219642	1.156091	0.032690	2.903140
156.696028	2555.263762	1.161096	0.032650	2.908776
157.050281	2566.268351	1.166101	0.032580	2.914406
157.360323	2577.275405	1.171106	0.032520	2.920020
157.816678	2588.291488	1.176110	0.032431	2.925649
158.099043	2599.348946	1.181115	0.032375	2.931262
158.528906	2610.317041	1.186120	0.032292	2.936842
158.886343	2621.360955	1.191125	0.032222	2.942438
159.297942	2632.349288	1.196129	0.032142	2.948003
159.897129	2643.383074	1.201134	0.032027	2.953609
160.302013	2654.416141	1.206139	0.031948	2.959175
160.570826	2665.420137	1.211143	0.031895	2.964695
161.085706	2676.452673	1.216148	0.031796	2.970256
161.151667	2687.502688	1.221153	0.031781	2.975747
161.587041	2698.470176	1.226158	0.031696	2.981243
161.735890	2709.513462	1.231162	0.031666	2.986724
162.385635	2720.493595	1.236167	0.031541	2.992238
162.758093	2731.542273	1.241172	0.031468	2.997734
162.815060	2742.581578	1.246177	0.031455	3.003168
163.000666	2753.597722	1.251181	0.031418	3.008600
163.213770	2764.609756	1.256186	0.031375	3.014025
163.577846	2775.587505	1.261191	0.031304	3.019445
164.145529	2786.617690	1.266195	0.031195	3.024911
164.406750	2797.672590	1.271200	0.031143	3.030333
164.822084	2808.666653	1.276205	0.031062	3.035740
165.321655	2819.676133	1.281210	0.030966	3.041156
165.843517	2830.677838	1.286214	0.030865	3.046561
166.275659	2841.720685	1.291219	0.030781	3.051964
166.756174	2852.720579	1.296224	0.030688	3.057344
166.940910	2863.756060	1.301228	0.030651	3.062688
167.384378	2874.776072	1.306233	0.030565	3.068053
167.661500	2885.787998	1.311238	0.030510	3.073381
168.321726	2896.794586	1.316243	0.030384	3.078751
168.507908	2907.837389	1.321247	0.030346	3.084062
168.780224	2918.856832	1.326252	0.030292	3.089365
168.979618	2929.875875	1.331257	0.030252	3.094648
169.316245	2940.869983	1.336262	0.030186	3.099929
169.869465	2951.886751	1.341266	0.030080	3.105243
170.395139	2962.924558	1.346271	0.029978	3.110554
170.649530	2973.934695	1.351276	0.029928	3.115804
171.006184	2984.951308	1.356280	0.029858	3.121063
171.185183	2995.980408	1.361285	0.029822	3.126294
171.737703	3006.976381	1.366290	0.029715	3.131552
172.101311	3018.003243	1.371295	0.029644	3.136790
172.520298	3029.017326	1.376299	0.029563	3.142020
172.975120	3040.043006	1.381304	0.029475	3.147252
173.180467	3051.051992	1.386309	0.029434	3.152434
173.331325	3062.100652	1.391314	0.029403	3.157618
173.828922	3073.078694	1.396318	0.029307	3.162807
174.083852	3084.103438	1.401323	0.029256	3.167977
174.284489	3095.155630	1.406328	0.029216	3.173144
174.388937	3106.148503	1.411332	0.029193	3.178261
174.699194	3117.169205	1.416337	0.029132	3.183411
175.160428	3128.162677	1.421342	0.029043	3.188561
175.556345	3139.194121	1.426347	0.028966	3.193710
175.765419	3150.225714	1.431351	0.028924	3.198827
176.161995	3161.221316	1.436356	0.028847	3.203943
176.512467	3172.263939	1.441361	0.028779	3.209067
177.071347	3183.227305	1.446366	0.028671	3.214174
177.450915	3194.275702	1.451370	0.028597	3.219288
177.919248	3205.277415	1.456375	0.028506	3.224384
178.309751	3216.333913	1.461380	0.028430	3.229487
178.629195	3227.327470	1.466384	0.028368	3.234543
178.839528	3238.360482	1.471389	0.028326	3.239595
179.125643	3249.365008	1.476394	0.028269	3.244636
179.566840	3260.391771	1.481399	0.028184	3.249700
179.973123	3271.379380	1.486403	0.028105	3.254733
180.126668	3282.449562	1.491408	0.028073	3.259763
180.364977	3293.431728	1.496413	0.028026	3.264756
180.750916	3304.459871	1.501417	0.027950	3.269782
181.090914	3315.470700	1.506422	0.027884	3.274786
181.312267	3326.496609	1.511427	0.027840	3.279773
181.800947	3337.485224	1.516432	0.027745	3.284771
181.974060	3348.551401	1.521436	0.027710	3.289755
182.422288	3359.530773	1.526441	0.027623	3.294728
182.758612	3370.557743	1.531446	0.027557	3.299701
183.124418	3381.564576	1.536451	0.027486	3.304660
183.450423	3392.589840	1.541455	0.027422	3.309616
183.893247	3403.586058	1.546460	0.027336	3.314565
184.270672	3414.623383	1.551465	0.027263	3.319517
184.711738	3425.632021	1.556469	0.027177	3.324457
185.083905	3436.664338	1.561474	0.027105	3.329392
185.521349	3447.629902	1.566479	0.027020	3.334297
185.767333	3458.695998	1.571484	0.026971	3.339216
186.160349	3469.680373	1.576488	0.026895	3.344110
186.344447	3480.755904	1.581493	0.026857	3.349010
186.588048	3491.726598	1.586498	0.026809	3.353865
186.892258	3502.768897	1.591503	0.026749	3.358752
187.272243	3513.757764	1.596507	0.026675	3.363617
187.356420	3524.814110	1.601512	0.026656	3.368468
187.759920	3535.793070	1.606517	0.026578	3.373318
187.971613	3546.829967	1.611521	0.026536	3.378162
188.450729	3557.816430	1.616526	0.026443	3.383011
188.762328	3568.864673	1.621531	0.026382	3.387858
189.195744	3579.858256	1.626536	0.026298	3.392690
189.468293	3590.897847	1.631540	0.026244	3.397515
189.640393	3601.905086	1.636545	0.026209	3.402307
190.064751	3612.926833	1.641550	0.026126	3.407129
190.508651	3623.915059	1.646555	0.026040	3.411932
190.812679	3634.957469	1.651559	0.025981	3.416734
191.006830	3645.960778	1.656564	0.025942	3.421500
191.246216	3657.003324	1.661569	0.025894	3.426281
191.489927	3667.998538	1.666573	0.025845	3.431036
191.838357	3679.012918	1.671578	0.025777	3.435805
192.073741	3690.053883	1.676583	0.025730	3.440565
192.320588	3701.047334	1.681588	0.025681	3.445299
192.817078	3712.067442	1.686592	0.025585	3.450068
193.069604	3723.081437	1.691597	0.025535	3.454799
193.576080	3734.088991	1.696602	0.025438	3.459550
193.812899	3745.126392	1.701606	0.025390	3.464276
194.270046	3756.123493	1.706611	0.025302	3.469004
194.455757	3767.148963	1.711616	0.025264	3.473706
195.234225	3778.120803	1.716621	0.025116	3.478448
195.660355	3789.188214	1.721625	0.025033	3.483182
196.068449	3800.192529	1.726630	0.024954	3.487881
196.178313	3811.218383	1.731635	0.024930	3.492549
196.593458	3822.227319	1.736640	0.024850	3.497238
196.809658	3833.237608	1.741644	0.024806	3.501899
197.174856	3844.262151	1.746649	0.024735	3.506576
197.437375	3855.278467	1.751654	0.024683	3.511232
198.938485	3866.194454	1.756658	0.024399	3.515981
199.615497	3877.304990	1.761663	0.024269	3.520711
200.142714	3888.316504	1.766668	0.024167	3.525376
200.667878	3899.346646	1.771673	0.024066	3.530042
201.063847	3910.328851	1.776677	0.023989	3.534667
201.320261	3921.381689	1.781682	0.023938	3.539300
201.579596	3932.387623	1.786687	0.023887	3.543907
201.922202	3943.421662	1.791692	0.023820	3.548530
202.377095	3954.393338	1.796696	0.023732	3.553133
203.757769	3965.380508	1.801701	0.023470	3.557840
204.373582	3976.423936	1.806706	0.023352	3.562478
204.836519	3987.466106	1.811710	0.023262	3.567093
204.840616	3998.499021	1.816715	0.023258	3.571647
205.240913	4009.501534	1.821720	0.023181	3.576226
205.648457	4020.488489	1.826725	0.023101	3.580794
205.979975	4031.552820	1.831729	0.023037	3.585379
206.261843	4042.553637	1.836734	0.022981	3.589927
206.586122	4053.558056	1.841739	0.022917	3.594475
207.040374	4064.552589	1.846744	0.022829	3.599028
207.644139	4075.603958	1.851748	0.022713	3.603614
208.089737	4086.595971	1.856753	0.022627	3.608153
208.433915	4097.659928	1.861758	0.022560	3.612704
208.621441	4108.699412	1.866762	0.022522	3.617222
208.900407	4119.703185	1.871767	0.022467	3.621730
209.179552	4130.718567	1.876772	0.022412	3.626238
209.491088	4141.716212	1.881777	0.022350	3.630736
209.795640	4152.775091	1.886781	0.022291	3.635252
209.976287	4163.757419	1.891786	0.022254	3.639718
210.350531	4174.782446	1.896791	0.022181	3.644217
210.751942	4185.807285	1.901795	0.022103	3.648713
211.161827	4196.803576	1.906800	0.022023	3.653193
211.640743	4207.832720	1.911805	0.021931	3.657687
211.974619	4218.834161	1.916810	0.021865	3.662150
212.213110	4229.894662	1.921814	0.021818	3.666621
212.541606	4240.844798	1.926819	0.021753	3.671051
213.069461	4251.894725	1.931824	0.021652	3.675537
213.422681	4262.903857	1.936829	0.021583	3.679983
213.741401	4273.944262	1.941833	0.021520	3.684432
214.050166	4284.933652	1.946838	0.021459	3.688854
214.349368	4295.949185	1.951843	0.021401	3.693281
214.539443	4307.006739	1.956847	0.021362	3.697707
214.743455	4318.003436	1.961852	0.021321	3.702105
215.134962	4328.978607	1.966857	0.021245	3.706509
215.363754	4340.030833	1.971862	0.021199	3.710922
215.751482	4351.013285	1.976866	0.021124	3.715317
215.914411	4362.064403	1.981871	0.021091	3.719712
216.066133	4373.059012	1.986876	0.021059	3.724078
216.463955	4384.084988	1.991881	0.020982	3.728476
216.896865	4395.078040	1.996885	0.020898	3.732860
217.322112	4406.125203	2.001890	0.020816	3.737259
217.779488	4417.096531	2.006895	0.020727	3.741626
