Wed Nov 23 19:06:18 2022

Number of Points = 2200
Depth (nm)	Load (µN)	Time (s)	Depth (V)	Load (V)
-0.833703	1.562269	0.000000	-0.003841	1.068795
0.000000	8.107121	0.005005	-0.003999	1.078165
0.769724	17.435267	0.010009	-0.004145	1.091173
1.628263	28.134072	0.015014	-0.004309	1.105891
2.373203	39.183202	0.020019	-0.004452	1.120819
3.000480	50.332645	0.025024	-0.004572	1.135624
3.527493	61.465997	0.030028	-0.004674	1.150171
4.169642	72.550803	0.035033	-0.004797	1.164527
4.743692	83.678605	0.040038	-0.004908	1.178731
5.068955	94.855473	0.045043	-0.004971	1.192713
5.384271	105.955205	0.050047	-0.005033	1.206435
5.812749	117.044202	0.055052	-0.005116	1.220039
6.224675	128.146148	0.060057	-0.005196	1.233501
6.605420	139.248872	0.065061	-0.005271	1.246805
7.057635	150.321139	0.070066	-0.005358	1.259963
7.373725	161.433639	0.075071	-0.005420	1.272974
7.753163	172.521695	0.080076	-0.005494	1.285852
8.203488	183.613084	0.085080	-0.005581	1.298634
8.351239	194.779655	0.090085	-0.005612	1.311253
8.782554	205.752539	0.095090	-0.005696	1.323650
15.712312	214.902348	0.100094	-0.006998	1.336525
26.389970	226.335752	0.105099	-0.009005	1.353229
27.094495	238.738890	0.110104	-0.009140	1.366882
28.209227	249.913298	0.115109	-0.009352	1.379251
29.255810	261.044097	0.120113	-0.009551	1.391438
30.336697	272.116769	0.125118	-0.009756	1.403470
31.548115	283.120162	0.130123	-0.009986	1.415377
32.273748	294.309890	0.135128	-0.010125	1.427195
33.304609	305.319959	0.140132	-0.010322	1.438844
34.147937	316.422279	0.145137	-0.010483	1.450424
35.062447	327.495637	0.150142	-0.010657	1.461908
36.020011	338.514109	0.155146	-0.010839	1.473263
37.010531	349.582656	0.160151	-0.011028	1.484592
37.958156	360.667954	0.165156	-0.011208	1.495836
38.816717	371.716900	0.170161	-0.011372	1.506929
39.584332	382.811658	0.175165	-0.011519	1.517953
39.959548	393.946775	0.180170	-0.011592	1.528801
40.570833	404.963665	0.185175	-0.011710	1.539540
41.497746	415.934461	0.190180	-0.011886	1.550268
42.464849	427.015772	0.195184	-0.012071	1.561039
43.358785	438.055688	0.200189	-0.012241	1.571673
44.350904	449.121993	0.205194	-0.012430	1.582291
45.096517	460.178106	0.210198	-0.012573	1.592748
45.983861	471.223511	0.215203	-0.012742	1.603173
46.917736	482.273030	0.220208	-0.012920	1.613548
47.662566	493.351301	0.225213	-0.013062	1.623822
48.778359	504.364076	0.230217	-0.013274	1.634091
49.575112	515.417911	0.235222	-0.013427	1.644231
50.211066	526.495192	0.240227	-0.013549	1.654278
50.771458	537.573719	0.245232	-0.013657	1.664241
51.715443	548.551598	0.250236	-0.013836	1.674176
52.791518	559.580137	0.255241	-0.014041	1.684137
53.709208	570.625024	0.260246	-0.014216	1.694004
55.061404	581.650441	0.265250	-0.014472	1.703929
55.972123	592.733501	0.270255	-0.014646	1.713712
56.798259	603.787461	0.275260	-0.014804	1.723389
57.522276	614.862102	0.280265	-0.014942	1.732998
58.163856	625.911952	0.285269	-0.015066	1.742509
59.017732	636.926122	0.290274	-0.015228	1.752000
59.820157	647.965969	0.295279	-0.015382	1.761446
60.823438	658.995558	0.300283	-0.015573	1.770891
61.477324	670.068169	0.305288	-0.015698	1.780220
62.365057	681.065799	0.310293	-0.015867	1.789506
63.197511	692.128777	0.315298	-0.016026	1.798781
63.883773	703.204571	0.320302	-0.016158	1.807977
64.592680	714.229303	0.325307	-0.016294	1.817091
65.394851	725.245025	0.330312	-0.016447	1.826179
66.045931	736.306497	0.335317	-0.016572	1.835215
67.188218	747.297569	0.340321	-0.016789	1.844287
67.760830	758.390044	0.345326	-0.016899	1.853238
68.606983	769.405170	0.350331	-0.017061	1.862159
69.012911	780.504619	0.355335	-0.017139	1.870983
69.979844	791.437967	0.360340	-0.017324	1.879788
70.438695	802.572285	0.365345	-0.017412	1.888571
71.172226	813.554418	0.370350	-0.017553	1.897268
71.862459	824.605491	0.375354	-0.017685	1.905968
72.400290	835.655260	0.380359	-0.017789	1.914586
73.212197	846.646397	0.385364	-0.017944	1.923193
73.812790	857.727660	0.390369	-0.018059	1.931774
74.378614	868.758492	0.395373	-0.018168	1.940269
75.345224	879.720145	0.400378	-0.018352	1.948780
75.977651	890.816292	0.405383	-0.018474	1.957267
76.490113	901.862676	0.410387	-0.018573	1.965649
77.012435	912.899441	0.415392	-0.018673	1.973991
77.798616	923.887718	0.420397	-0.018824	1.982330
78.597788	934.920073	0.425402	-0.018976	1.990668
79.439666	945.954342	0.430406	-0.019137	1.998984
80.003948	957.004981	0.435411	-0.019246	2.007207
80.742790	968.050262	0.440416	-0.019387	2.015436
81.515266	979.036625	0.445421	-0.019535	2.023597
82.308392	990.085422	0.450425	-0.019686	2.031775
83.063231	1001.119122	0.455430	-0.019831	2.039899
83.733082	1012.155423	0.460435	-0.019959	2.047972
84.575807	1023.177210	0.465439	-0.020120	2.056045
85.219171	1034.249706	0.470444	-0.020243	2.064074
85.719336	1045.271983	0.475449	-0.020340	2.072001
86.279663	1056.321126	0.480454	-0.020448	2.079931
86.822455	1067.340075	0.485458	-0.020552	2.087805
87.447904	1078.384891	0.490463	-0.020672	2.095687
87.863140	1089.389623	0.495468	-0.020753	2.103462
88.793477	1100.376900	0.500472	-0.020930	2.111317
89.202998	1111.481422	0.505477	-0.021010	2.119102
89.639019	1122.476188	0.510482	-0.021094	2.126789
90.564145	1133.486800	0.515487	-0.021271	2.134572
91.344209	1144.509287	0.520491	-0.021420	2.142301
91.813446	1155.574782	0.525496	-0.021511	2.149960
92.365639	1166.611117	0.530501	-0.021617	2.157591
93.063919	1177.602101	0.535506	-0.021751	2.165197
93.774461	1188.639051	0.540510	-0.021887	2.172810
94.272928	1199.687452	0.545515	-0.021983	2.180356
94.730083	1210.718068	0.550520	-0.022072	2.187854
95.347083	1221.738132	0.555524	-0.022190	2.195356
95.734348	1232.775523	0.560529	-0.022265	2.202792
96.449095	1243.778362	0.565534	-0.022402	2.210253
97.236024	1254.790157	0.570539	-0.022553	2.217710
97.768631	1265.853981	0.575543	-0.022655	2.225120
98.104084	1276.890671	0.580548	-0.022721	2.232444
98.665906	1287.900669	0.585553	-0.022829	2.239776
99.342237	1298.906456	0.590558	-0.022959	2.247107
99.890485	1309.967720	0.595562	-0.023064	2.254421
100.347108	1320.987510	0.600567	-0.023153	2.261665
100.988219	1331.989224	0.605572	-0.023276	2.268914
101.515371	1343.040277	0.610576	-0.023378	2.276146
101.964613	1354.048439	0.615581	-0.023465	2.283311
102.678123	1365.071944	0.620586	-0.023601	2.290520
103.077000	1376.106597	0.625591	-0.023679	2.297647
103.958470	1387.096855	0.630595	-0.023847	2.304824
104.410764	1398.157110	0.635600	-0.023934	2.311934
104.865938	1409.201494	0.640605	-0.024023	2.319012
105.306887	1420.219111	0.645610	-0.024108	2.326048
105.909353	1431.230407	0.650614	-0.024224	2.333093
106.483444	1442.241443	0.655619	-0.024334	2.340110
106.896072	1453.296882	0.660624	-0.024414	2.347100
107.263876	1464.325717	0.665628	-0.024486	2.354044
107.856527	1475.317894	0.670633	-0.024600	2.360990
108.337696	1486.344607	0.675638	-0.024693	2.367915
108.995608	1497.390345	0.680643	-0.024819	2.374866
109.293621	1508.400968	0.685647	-0.024878	2.381703
109.978647	1519.427246	0.690652	-0.025009	2.388608
110.484759	1530.425322	0.695657	-0.025107	2.395439
111.121395	1541.478494	0.700661	-0.025229	2.402311
111.535968	1552.508036	0.705666	-0.025310	2.409104
112.173170	1563.516861	0.710671	-0.025432	2.415909
112.436214	1574.578389	0.715676	-0.025484	2.422653
112.965438	1585.546323	0.720680	-0.025586	2.429374
113.426201	1596.590981	0.725685	-0.025675	2.436110
114.095429	1607.601817	0.730690	-0.025804	2.442847
114.502681	1618.653152	0.735695	-0.025883	2.449538
115.087347	1629.658241	0.740699	-0.025995	2.456218
115.638143	1640.679734	0.745704	-0.026101	2.462882
116.160941	1651.699936	0.750709	-0.026202	2.469523
116.582490	1662.742624	0.755713	-0.026284	2.476139
117.244281	1673.744685	0.760718	-0.026411	2.482759
117.741286	1684.768274	0.765723	-0.026507	2.489343
118.262075	1695.794612	0.770728	-0.026607	2.495916
118.597398	1706.841313	0.775732	-0.026673	2.502447
119.129932	1717.852059	0.780737	-0.026775	2.508978
119.437892	1728.889911	0.785742	-0.026836	2.515465
120.011191	1739.870517	0.790747	-0.026946	2.521952
120.281231	1750.949737	0.795751	-0.027000	2.528423
120.734883	1761.926176	0.800756	-0.027088	2.534852
121.142974	1772.962379	0.805761	-0.027167	2.541290
121.619555	1783.968631	0.810765	-0.027259	2.547708
122.274682	1794.986621	0.815770	-0.027385	2.554148
122.730717	1806.028907	0.820775	-0.027473	2.560550
123.098937	1817.038449	0.825780	-0.027545	2.566901
123.505461	1828.109309	0.830784	-0.027624	2.573278
123.773803	1839.135621	0.835789	-0.027677	2.579588
124.407036	1850.088195	0.840794	-0.027798	2.585908
124.881143	1861.127208	0.845799	-0.027890	2.592232
125.372274	1872.150118	0.850803	-0.027985	2.598534
125.526762	1883.195391	0.855808	-0.028017	2.604773
125.899003	1894.211372	0.860813	-0.028089	2.611020
126.203525	1905.234554	0.865817	-0.028149	2.617243
126.695194	1916.223242	0.870822	-0.028244	2.623466
126.977390	1927.261732	0.875827	-0.028300	2.629665
127.666888	1938.258442	0.880832	-0.028432	2.635897
127.882484	1949.322770	0.885836	-0.028475	2.642069
128.375279	1960.315754	0.890841	-0.028570	2.648235
128.787202	1971.353360	0.895846	-0.028650	2.654397
129.384477	1982.329066	0.900850	-0.028765	2.660544
129.948404	1993.377948	0.905855	-0.028874	2.666710
130.370230	2004.417764	0.910860	-0.028956	2.672832
130.854857	2015.404100	0.915865	-0.029049	2.678922
131.223639	2026.460177	0.920869	-0.029121	2.685016
131.575590	2037.475959	0.925874	-0.029190	2.691071
132.009071	2048.459601	0.930879	-0.029274	2.697109
132.444464	2059.492049	0.935884	-0.029358	2.703160
133.026798	2070.481484	0.940888	-0.029470	2.709199
133.300012	2081.529816	0.945893	-0.029524	2.715204
134.374020	2092.459560	0.950898	-0.029729	2.721267
136.023372	2103.479263	0.955902	-0.030041	2.727462
136.583188	2114.590677	0.960907	-0.030149	2.733508
136.888467	2125.591515	0.965912	-0.030209	2.739439
137.469882	2136.607358	0.970917	-0.030320	2.745411
137.920629	2147.657733	0.975921	-0.030408	2.751367
138.407419	2158.660129	0.980926	-0.030502	2.757290
138.902474	2169.644103	0.985931	-0.030597	2.763191
139.445963	2180.706215	0.990936	-0.030702	2.769130
139.772049	2191.730287	0.995940	-0.030766	2.775000
140.093014	2202.763086	1.000945	-0.030829	2.780860
140.396134	2213.754923	1.005950	-0.030889	2.786685
141.095507	2224.764233	1.010954	-0.031023	2.792570
141.528711	2235.790801	1.015959	-0.031107	2.798409
141.939452	2246.817981	1.020964	-0.031186	2.804232
142.279196	2257.844436	1.025969	-0.031253	2.810031
142.936424	2268.846723	1.030973	-0.031379	2.815857
143.198669	2279.903423	1.035978	-0.031431	2.821635
143.739828	2290.879262	1.040983	-0.031535	2.827404
144.180772	2301.911592	1.045988	-0.031621	2.833175
144.540855	2312.940418	1.050992	-0.031691	2.838918
144.861457	2323.952582	1.055997	-0.031754	2.844636
145.580621	2334.967212	1.061002	-0.031891	2.850406
145.833949	2346.004049	1.066006	-0.031942	2.856102
146.460569	2357.003908	1.071011	-0.032062	2.861826
146.703844	2368.053837	1.076016	-0.032110	2.867505
146.985115	2379.054781	1.081021	-0.032166	2.873153
147.190341	2390.077083	1.086025	-0.032207	2.878789
147.806774	2401.083175	1.091030	-0.032326	2.884469
148.114977	2412.133949	1.096035	-0.032386	2.890113
148.413828	2423.140304	1.101039	-0.032445	2.895722
148.913544	2434.157714	1.106044	-0.032541	2.901357
149.197890	2445.172942	1.111049	-0.032598	2.906946
149.567260	2456.177527	1.116054	-0.032670	2.912532
149.933431	2467.203403	1.121058	-0.032741	2.918118
150.363515	2478.200141	1.126063	-0.032824	2.923688
151.075540	2489.226341	1.131068	-0.032961	2.929305
151.516543	2500.252935	1.136073	-0.033046	2.934869
151.763534	2511.284579	1.141077	-0.033095	2.940397
152.312933	2522.281316	1.146082	-0.033201	2.945942
152.846549	2533.319323	1.151087	-0.033304	2.951495
153.325853	2544.311203	1.156091	-0.033397	2.957006
153.524098	2555.363679	1.161096	-0.033437	2.962495
153.871865	2566.358065	1.166101	-0.033505	2.967967
154.817192	2577.362755	1.171106	-0.033685	2.973523
155.193048	2588.407066	1.176110	-0.033758	2.979004
155.638408	2599.412300	1.181115	-0.033844	2.984465
156.041531	2610.449649	1.186120	-0.033923	2.989926
156.403329	2621.470176	1.191125	-0.033993	2.995362
156.746870	2632.485220	1.196129	-0.034060	3.000783
157.156024	2643.503425	1.201134	-0.034140	3.006205
157.587348	2654.496736	1.206139	-0.034224	3.011609
158.104874	2665.513419	1.211143	-0.034323	3.017027
158.430999	2676.556188	1.216148	-0.034387	3.022419
158.912556	2687.564760	1.221153	-0.034480	3.027808
159.287538	2698.581945	1.226158	-0.034553	3.033176
159.828204	2709.596174	1.231162	-0.034658	3.038557
160.105740	2720.639498	1.236167	-0.034712	3.043904
160.446499	2731.655041	1.241172	-0.034779	3.049238
160.839560	2742.644654	1.246177	-0.034856	3.054557
161.238779	2753.686010	1.251181	-0.034933	3.059893
161.587497	2764.688109	1.256186	-0.035001	3.065193
162.165061	2775.697402	1.261191	-0.035112	3.070520
162.595245	2786.726822	1.266195	-0.035196	3.075826
162.890030	2797.760618	1.271200	-0.035254	3.081106
163.241198	2808.758064	1.276205	-0.035323	3.086367
163.936551	2819.770550	1.281210	-0.035456	3.091675
164.244709	2830.806043	1.286214	-0.035516	3.096930
164.795700	2841.788231	1.291219	-0.035622	3.102185
165.218177	2852.846808	1.296224	-0.035704	3.107449
165.463062	2863.868559	1.301228	-0.035753	3.112662
165.686201	2874.880821	1.306233	-0.035798	3.117859
166.196831	2885.882488	1.311238	-0.035896	3.123082
166.566818	2896.922405	1.316243	-0.035968	3.128294
166.977903	2907.925551	1.321247	-0.036048	3.133487
167.247437	2918.945328	1.326252	-0.036102	3.138659
167.630379	2929.948988	1.331257	-0.036176	3.143830
168.034578	2940.998587	1.336262	-0.036255	3.149017
168.538883	2951.976905	1.341266	-0.036352	3.154176
169.002507	2963.001141	1.346271	-0.036442	3.159342
169.455441	2974.028779	1.351276	-0.036530	3.164499
169.897074	2985.050417	1.356280	-0.036615	3.169644
170.333889	2996.049098	1.361285	-0.036700	3.174769
170.507144	3007.097212	1.366290	-0.036735	3.179873
170.906981	3018.103493	1.371295	-0.036813	3.184980
171.068804	3029.135664	1.376299	-0.036846	3.190059
171.395624	3040.134967	1.381304	-0.036910	3.195137
171.803310	3051.162849	1.386309	-0.036989	3.200230
172.056123	3062.165925	1.391314	-0.037039	3.205283
172.409988	3073.188938	1.396318	-0.037108	3.210351
172.784181	3084.193628	1.401323	-0.037181	3.215405
173.142049	3095.216607	1.406328	-0.037251	3.220457
173.505230	3106.242636	1.411332	-0.037322	3.225503
173.733884	3117.261580	1.416337	-0.037368	3.230520
174.312671	3128.230246	1.421342	-0.037479	3.235552
174.575201	3139.297179	1.426347	-0.037531	3.240580
175.179434	3150.289606	1.431351	-0.037647	3.245611
175.349903	3161.349923	1.436356	-0.037682	3.250608
175.638026	3172.310209	1.441361	-0.037739	3.255567
176.064053	3183.367126	1.446366	-0.037821	3.260580
176.361256	3194.370909	1.451370	-0.037880	3.265545
176.687421	3205.393941	1.456375	-0.037944	3.270515
176.975181	3216.391847	1.461380	-0.038001	3.275461
177.300645	3227.443574	1.466384	-0.038064	3.280428
177.591780	3238.455474	1.471389	-0.038122	3.285365
177.892844	3249.468748	1.476394	-0.038181	3.290297
178.119020	3260.464529	1.481399	-0.038226	3.295204
178.663061	3271.483183	1.486403	-0.038331	3.300154
179.090888	3282.486244	1.491408	-0.038414	3.305075
179.347362	3293.542723	1.496413	-0.038465	3.309991
179.719341	3304.530734	1.501417	-0.038537	3.314883
179.912486	3315.576763	1.506422	-0.038576	3.319772
180.581664	3326.536587	1.511427	-0.038705	3.324674
180.805375	3337.627036	1.516432	-0.038749	3.329571
181.040551	3348.599678	1.521436	-0.038796	3.334411
181.352616	3359.629613	1.526441	-0.038857	3.339278
181.690657	3370.625748	1.531446	-0.038924	3.344127
182.186395	3381.663937	1.536451	-0.039019	3.349006
182.503851	3392.657017	1.541455	-0.039082	3.353836
182.818076	3403.705211	1.546460	-0.039143	3.358683
183.100768	3414.692256	1.551465	-0.039199	3.363492
183.490966	3425.743640	1.556469	-0.039275	3.368336
183.799490	3436.737577	1.561474	-0.039336	3.373138
183.974075	3447.772675	1.566479	-0.039371	3.377934
184.359520	3458.750965	1.571484	-0.039446	3.382724
184.713562	3469.787265	1.576488	-0.039515	3.387529
185.092150	3480.800829	1.581493	-0.039589	3.392320
185.562548	3491.804026	1.586498	-0.039680	3.397111
185.899218	3502.844435	1.591503	-0.039746	3.401895
186.049876	3513.876702	1.596507	-0.039777	3.406646
186.184680	3524.866212	1.601512	-0.039805	3.411370
186.421156	3535.897641	1.606517	-0.039852	3.416118
186.855926	3546.889679	1.611521	-0.039936	3.420866
187.209636	3557.921317	1.616526	-0.040005	3.425615
187.664825	3568.914867	1.621531	-0.040094	3.430353
187.937417	3579.971573	1.626536	-0.040148	3.435089
188.202742	3590.959044	1.631540	-0.040200	3.439789
188.576296	3602.004842	1.636545	-0.040273	3.444519
188.901578	3613.007222	1.641550	-0.040337	3.449219
189.073593	3624.039044	1.646555	-0.040372	3.453907
189.362154	3635.021446	1.651559	-0.040428	3.458581
189.740908	3646.037147	1.656564	-0.040502	3.463273
190.275335	3657.051385	1.661569	-0.040605	3.467977
190.509108	3668.082567	1.666573	-0.040652	3.472646
190.902598	3679.081371	1.671578	-0.040728	3.477314
191.065063	3690.139904	1.676583	-0.040762	3.481974
191.609354	3701.126224	1.681588	-0.040867	3.486641
191.755326	3712.153648	1.686592	-0.040897	3.491273
192.081209	3723.143812	1.691597	-0.040960	3.495904
192.335937	3734.183204	1.696602	-0.041011	3.500542
192.758570	3745.202279	1.701606	-0.041093	3.505184
193.034197	3756.224540	1.706611	-0.041148	3.509804
193.068655	3767.240663	1.711616	-0.041157	3.514388
193.431178	3778.252936	1.716621	-0.041227	3.519002
193.835900	3789.241446	1.721625	-0.041306	3.523604
194.192352	3800.303024	1.726630	-0.041376	3.528225
194.710081	3811.264074	1.731635	-0.041476	3.532817
195.038316	3822.314493	1.736640	-0.041540	3.537418
195.562385	3833.288143	1.741644	-0.041641	3.542004
195.878975	3844.355927	1.746649	-0.041703	3.546598
196.288082	3855.331447	1.751654	-0.041783	3.551160
196.720258	3866.378351	1.756658	-0.041866	3.555747
196.945427	3877.368413	1.761663	-0.041911	3.560282
197.326680	3888.401688	1.766668	-0.041986	3.564846
197.480747	3899.430993	1.771673	-0.042017	3.569378
197.743664	3910.441484	1.776677	-0.042069	3.573908
198.135194	3921.447842	1.781682	-0.042146	3.578444
198.531034	3932.458946	1.786687	-0.042223	3.582977
198.982790	3943.473264	1.791692	-0.042310	3.587512
199.116987	3954.509049	1.796696	-0.042338	3.592015
199.349817	3965.505613	1.801701	-0.042384	3.596507
199.718823	3976.520707	1.806706	-0.042456	3.601016
200.054343	3987.555759	1.811710	-0.042522	3.605524
200.291295	3998.561629	1.816715	-0.042569	3.610003
200.511445	4009.572702	1.821720	-0.042613	3.614477
200.740013	4020.607769	1.826725	-0.042659	3.618957
200.936868	4031.600801	1.831729	-0.042699	3.623410
201.377370	4042.632319	1.836734	-0.042784	3.627899
201.682391	4053.611933	1.841739	-0.042844	3.632347
202.069357	4064.669205	1.846744	-0.042919	3.636830
202.194092	4075.664757	1.851748	-0.042945	3.641254
202.649088	4086.706118	1.856753	-0.043033	3.645726
202.976119	4097.713142	1.861758	-0.043098	3.650166
203.603173	4108.748037	1.866762	-0.043218	3.654643
204.141817	4119.758411	1.871767	-0.043322	3.659095
204.546683	4130.805213	1.876772	-0.043400	3.663542
204.759330	4141.828281	1.881777	-0.043443	3.667954
204.747298	4152.859972	1.886781	-0.043444	3.672340
205.043946	4163.840695	1.891786	-0.043502	3.676734
205.267284	4174.859463	1.896791	-0.043547	3.681129
205.639941	4185.866064	1.901795	-0.043619	3.685530
205.914499	4196.899865	1.906800	-0.043673	3.689926
206.130116	4207.899197	1.911805	-0.043717	3.694297
206.513570	4218.898977	1.916810	-0.043791	3.698680
206.868204	4229.949721	1.921814	-0.043861	3.703075
207.153581	4240.981121	1.926819	-0.043917	3.707451
207.349142	4251.949839	1.931824	-0.043956	3.711787
207.625792	4262.994820	1.936829	-0.044011	3.716156
207.864029	4273.991357	1.941833	-0.044058	3.720497
208.212076	4285.029955	1.946838	-0.044126	3.724861
208.527078	4296.011362	1.951843	-0.044188	3.729194
208.859065	4307.044561	1.956847	-0.044253	3.733543
209.120249	4318.048379	1.961852	-0.044305	3.737869
209.354645	4329.099272	1.966857	-0.044352	3.742205
