Wed Nov 23 19:06:18 2022

Number of Points = 2200
Depth (nm)	Load (µN)	Time (s)	Depth (V)	Load (V)
-3.175145	1.630251	0.000000	-0.023625	1.120922
0.000000	7.832832	0.005005	-0.024222	1.130508
3.330605	17.161248	0.010009	-0.024849	1.144091
5.865538	28.065844	0.015014	-0.025328	1.159134
7.410703	39.343864	0.020019	-0.025620	1.173996
8.699544	50.546471	0.025024	-0.025865	1.188462
9.706260	61.731494	0.030028	-0.026057	1.202606
10.496887	72.886501	0.035033	-0.026208	1.216453
11.227937	84.024344	0.040038	-0.026348	1.230098
11.974495	95.112976	0.045043	-0.026491	1.243541
12.734724	106.194383	0.050047	-0.026636	1.256837
13.252896	117.351950	0.055052	-0.026736	1.269980
13.630540	128.469711	0.060057	-0.026810	1.282883
14.332580	139.507450	0.065061	-0.026944	1.295701
14.655021	150.702308	0.070066	-0.027007	1.308415
20.600092	160.328683	0.075071	-0.028125	1.321534
25.292618	172.069626	0.080076	-0.029009	1.336338
26.898769	183.557740	0.085080	-0.029313	1.349488
28.341742	194.695592	0.090085	-0.029586	1.362070
30.337104	205.735799	0.095090	-0.029963	1.374645
31.822136	216.907369	0.100094	-0.030245	1.387049
33.260718	227.974081	0.105099	-0.030518	1.399215
34.502689	239.066341	0.110104	-0.030753	1.411227
35.795901	250.167486	0.115109	-0.030999	1.423166
36.922791	261.232549	0.120113	-0.031213	1.434907
38.218658	272.311955	0.125118	-0.031459	1.446627
39.338948	283.394019	0.130123	-0.031672	1.458192
40.543925	294.426941	0.135128	-0.031901	1.469647
41.752752	305.477297	0.140132	-0.032130	1.481031
42.977858	316.583742	0.145137	-0.032363	1.492388
43.968821	327.658436	0.150142	-0.032551	1.503547
45.082293	338.706960	0.155146	-0.032763	1.514639
46.139866	349.768808	0.160151	-0.032964	1.525644
47.169979	360.845042	0.165156	-0.033160	1.536573
47.876735	371.944118	0.170161	-0.033296	1.547337
48.989241	382.916590	0.175165	-0.033507	1.558044
50.248518	393.975106	0.180170	-0.033746	1.568806
51.296043	405.046405	0.185175	-0.033946	1.579436
52.687247	416.043206	0.190180	-0.034209	1.590039
53.575778	427.189711	0.195184	-0.034379	1.600544
54.618873	438.179945	0.200189	-0.034577	1.610887
55.628951	449.309592	0.205194	-0.034770	1.621280
56.635284	460.320952	0.210198	-0.034961	1.631498
57.653574	471.364322	0.215203	-0.035155	1.641685
58.577436	482.411749	0.220208	-0.035331	1.651782
59.516721	493.493116	0.225213	-0.035510	1.661852
60.319679	504.533319	0.230217	-0.035663	1.671783
61.181706	515.571140	0.235222	-0.035828	1.681670
62.482051	526.546621	0.240227	-0.036075	1.691580
63.413890	537.666475	0.245232	-0.036252	1.701443
64.476815	548.691036	0.250236	-0.036454	1.711208
65.249148	559.760766	0.255241	-0.036602	1.720867
66.313788	570.747449	0.260246	-0.036804	1.730489
67.337306	581.837340	0.265250	-0.036999	1.740132
68.031580	592.899081	0.270255	-0.037132	1.749601
68.885193	603.919884	0.275260	-0.037295	1.759031
69.858788	614.957193	0.280265	-0.037481	1.768459
70.678199	626.029573	0.285269	-0.037637	1.777821
71.337662	637.071772	0.290274	-0.037764	1.787063
72.073715	648.112735	0.295279	-0.037904	1.796278
73.050482	659.091191	0.300283	-0.038090	1.805463
73.986258	670.161905	0.305288	-0.038269	1.814663
74.912732	681.190118	0.310293	-0.038445	1.823781
75.717108	692.249153	0.315298	-0.038599	1.832843
76.477138	703.304208	0.320302	-0.038744	1.841845
77.366591	714.313619	0.325307	-0.038914	1.850802
78.272575	725.364555	0.330312	-0.039087	1.859753
79.221951	736.374270	0.335317	-0.039268	1.868640
80.290360	747.409987	0.340321	-0.039471	1.877537
80.705361	758.548325	0.345326	-0.039551	1.886295
81.591352	769.491995	0.350331	-0.039720	1.894988
82.391804	780.549380	0.355335	-0.039873	1.903706
83.246975	791.571600	0.360340	-0.040036	1.912372
84.038167	802.633227	0.365345	-0.040188	1.921011
84.848477	813.648228	0.370350	-0.040342	1.929580
85.596479	824.696413	0.375354	-0.040486	1.938121
86.452418	835.708318	0.380359	-0.040649	1.946624
87.235435	846.749261	0.385364	-0.040799	1.955093
88.076955	857.783044	0.390369	-0.040959	1.963534
88.712207	868.851526	0.395373	-0.041081	1.971912
89.552859	879.843844	0.400378	-0.041242	1.980251
90.249967	890.905031	0.405383	-0.041375	1.988568
91.078215	901.909936	0.410387	-0.041533	1.996842
91.872838	912.952341	0.415392	-0.041685	2.005101
92.492847	924.016926	0.420397	-0.041804	2.013298
93.171634	935.033368	0.425402	-0.041934	2.021441
93.975028	946.048520	0.430406	-0.042088	2.029581
94.652895	957.093091	0.435411	-0.042218	2.037679
95.438994	968.113520	0.440416	-0.042368	2.045753
95.813841	979.193357	0.445421	-0.042441	2.053738
96.658704	990.147297	0.450425	-0.042602	2.061716
97.526393	1001.198813	0.455430	-0.042768	2.069737
98.362813	1012.226726	0.460435	-0.042927	2.077703
99.100121	1023.281338	0.465439	-0.043069	2.085633
99.876596	1034.305895	0.470444	-0.043217	2.093522
100.287313	1045.370697	0.475449	-0.043297	2.101321
101.143438	1056.359677	0.480454	-0.043460	2.109144
101.844982	1067.409001	0.485458	-0.043595	2.116944
102.489542	1078.437066	0.490463	-0.043718	2.124686
103.056727	1089.469900	0.495468	-0.043827	2.132385
103.636329	1100.510171	0.500472	-0.043939	2.140065
104.270598	1111.515242	0.505477	-0.044061	2.147705
105.053992	1122.536690	0.510482	-0.044210	2.155363
106.016730	1133.546666	0.515487	-0.044394	2.163027
106.864448	1144.582931	0.520491	-0.044555	2.170655
107.333839	1155.669209	0.525496	-0.044646	2.178204
108.091596	1166.633936	0.530501	-0.044791	2.185711
108.721747	1177.706524	0.535506	-0.044912	2.193235
109.364028	1188.707563	0.540510	-0.045035	2.200688
109.955922	1199.751238	0.545515	-0.045149	2.208132
110.591339	1210.793006	0.550520	-0.045271	2.215560
111.022248	1221.805428	0.555524	-0.045355	2.222898
111.635867	1232.836362	0.560529	-0.045473	2.230265
112.153521	1243.873598	0.565534	-0.045572	2.237589
112.924171	1254.860000	0.570539	-0.045720	2.244912
113.535618	1265.921237	0.575543	-0.045837	2.252225
114.077720	1276.951322	0.580548	-0.045942	2.259478
114.659996	1287.955132	0.585553	-0.046054	2.266700
115.116545	1299.001498	0.590558	-0.046142	2.273900
115.689843	1310.011752	0.595562	-0.046252	2.281078
116.359339	1321.016275	0.600567	-0.046381	2.288250
117.081435	1332.054877	0.605572	-0.046519	2.295432
117.570544	1343.132163	0.610576	-0.046614	2.302567
118.018888	1354.091908	0.615581	-0.046700	2.309597
118.538853	1365.171269	0.620586	-0.046801	2.316696
119.063348	1376.166640	0.625591	-0.046902	2.323721
119.771522	1387.175857	0.630595	-0.047037	2.330772
120.288927	1398.225252	0.635600	-0.047137	2.337786
121.447639	1409.171592	0.640605	-0.047357	2.344848
121.994491	1420.265869	0.645610	-0.047463	2.351854
122.533061	1431.292879	0.650614	-0.047566	2.358796
123.124801	1442.296444	0.655619	-0.047680	2.365713
124.005691	1453.312628	0.660624	-0.047848	2.372677
124.536561	1464.362877	0.665628	-0.047951	2.379570
125.155300	1475.375700	0.670633	-0.048069	2.386438
125.519806	1486.451105	0.675638	-0.048141	2.393273
126.068573	1497.414449	0.680643	-0.048246	2.400057
126.682791	1508.464639	0.685647	-0.048364	2.406887
127.322151	1519.492688	0.690652	-0.048487	2.413690
127.807558	1530.479008	0.695657	-0.048581	2.420418
128.560802	1541.515094	0.700661	-0.048725	2.427209
129.210690	1552.543892	0.705666	-0.048850	2.433957
129.753145	1563.581964	0.710671	-0.048954	2.440670
130.220020	1574.604978	0.715676	-0.049044	2.447341
130.671892	1585.649491	0.720680	-0.049132	2.454003
131.363308	1596.591260	0.725685	-0.049264	2.460633
131.891534	1607.694898	0.730690	-0.049366	2.467309
132.452777	1618.700049	0.735695	-0.049474	2.473915
132.895656	1629.703880	0.740699	-0.049560	2.480480
133.454203	1640.741964	0.745704	-0.049668	2.487069
133.967041	1651.784693	0.750709	-0.049767	2.493635
134.444509	1662.759327	0.755713	-0.049859	2.500137
134.988398	1673.813847	0.760718	-0.049964	2.506681
135.554690	1684.834308	0.765723	-0.050073	2.513192
135.922162	1695.848743	0.770728	-0.050144	2.519646
136.402230	1706.882032	0.775732	-0.050237	2.526115
136.989925	1717.897052	0.780737	-0.050350	2.532576
137.431619	1728.911813	0.785742	-0.050436	2.538994
137.897676	1739.943946	0.790747	-0.050526	2.545410
138.386344	1750.961512	0.795751	-0.050620	2.551805
138.983416	1761.982638	0.800756	-0.050735	2.558207
139.575982	1772.989741	0.805761	-0.050849	2.564583
140.077126	1784.048943	0.810765	-0.050946	2.570956
140.383503	1795.104483	0.815770	-0.051006	2.577276
141.048402	1806.065664	0.820775	-0.051133	2.583591
141.750296	1817.046331	0.825780	-0.051268	2.589909
142.244584	1828.139319	0.830784	-0.051363	2.596237
142.617887	1839.128840	0.835789	-0.051436	2.602470
143.118582	1850.153361	0.840794	-0.051533	2.608730
143.709861	1861.151208	0.845799	-0.051647	2.614976
144.199871	1872.215761	0.850803	-0.051741	2.621227
144.423724	1883.218713	0.855808	-0.051786	2.627380
145.427139	1894.195959	0.860813	-0.051977	2.633643
145.871726	1905.264354	0.865817	-0.052063	2.639843
146.665902	1916.251338	0.870822	-0.052215	2.646044
146.952984	1927.330556	0.875827	-0.052271	2.652193
147.593799	1938.300275	0.880832	-0.052394	2.658329
148.166355	1949.340651	0.885836	-0.052505	2.664478
148.651082	1960.369927	0.890841	-0.052598	2.670590
149.106069	1971.378937	0.895846	-0.052686	2.676673
149.507451	1982.425943	0.900850	-0.052764	2.682753
150.237001	1993.371255	0.905855	-0.052904	2.688820
150.874737	2004.447966	0.910860	-0.053026	2.694929
151.265667	2015.475795	0.915865	-0.053102	2.700956
151.931992	2026.460542	0.920869	-0.053230	2.706992
152.215904	2037.537603	0.925874	-0.053286	2.713000
152.806538	2048.492469	0.930879	-0.053400	2.718980
153.214179	2059.525044	0.935884	-0.053479	2.724958
153.778232	2070.547302	0.940888	-0.053588	2.730944
154.276070	2081.550177	0.945893	-0.053684	2.736895
154.938153	2092.577854	0.950898	-0.053811	2.742873
155.239568	2103.610316	0.955902	-0.053870	2.748781
155.710368	2114.613915	0.960907	-0.053961	2.754688
156.159651	2125.650819	0.965912	-0.054048	2.760597
156.625344	2136.662973	0.970917	-0.054138	2.766483
157.232838	2147.686399	0.975921	-0.054255	2.772386
157.693259	2158.694236	0.980926	-0.054344	2.778243
157.841620	2169.733608	0.985931	-0.054375	2.784054
158.321524	2180.772561	0.990936	-0.054467	2.789906
158.730592	2191.747735	0.995940	-0.054547	2.795701
159.281483	2202.776548	1.000945	-0.054653	2.801535
159.604520	2213.814940	1.005950	-0.054716	2.807325
160.149975	2224.825658	1.010954	-0.054821	2.813124
160.475958	2235.838374	1.015959	-0.054885	2.818877
161.061249	2246.842767	1.020964	-0.054998	2.824655
161.698785	2257.854866	1.025969	-0.055120	2.830434
162.159556	2268.913243	1.030973	-0.055209	2.836196
162.536541	2279.948693	1.035978	-0.055283	2.841921
162.882384	2290.923744	1.040983	-0.055350	2.847599
163.272384	2301.947855	1.045988	-0.055426	2.853298
164.016565	2312.955932	1.050992	-0.055569	2.859032
164.416393	2323.998968	1.055997	-0.055646	2.864719
164.687846	2335.041751	1.061002	-0.055700	2.870374
164.853557	2346.053450	1.066006	-0.055734	2.875986
165.415280	2357.049417	1.071011	-0.055842	2.881640
165.827051	2368.064091	1.076016	-0.055922	2.887270
166.377555	2379.090528	1.081021	-0.056028	2.892915
166.952204	2390.082103	1.086025	-0.056139	2.898536
167.577905	2401.118049	1.091030	-0.056259	2.904175
168.012928	2412.145223	1.096035	-0.056343	2.909770
168.665313	2423.133499	1.101039	-0.056468	2.915368
169.360402	2434.168825	1.106044	-0.056601	2.920985
169.804197	2445.207361	1.111049	-0.056687	2.926554
170.179383	2456.227364	1.116054	-0.056761	2.932093
170.472615	2467.236260	1.121058	-0.056818	2.937604
170.929740	2478.239775	1.126063	-0.056907	2.943126
171.579611	2489.261655	1.131068	-0.057031	2.948676
172.006449	2500.285878	1.136073	-0.057114	2.954183
172.620757	2511.306788	1.141077	-0.057232	2.959705
172.878210	2522.360281	1.146082	-0.057283	2.965181
173.241517	2533.359258	1.151087	-0.057354	2.970635
173.662140	2544.364763	1.156091	-0.057436	2.976091
174.149585	2555.382939	1.161096	-0.057530	2.981552
174.620166	2566.394952	1.166101	-0.057621	2.986998
175.155663	2577.406144	1.171106	-0.057724	2.992443
175.443079	2588.448320	1.176110	-0.057781	2.997857
175.783540	2599.463325	1.181115	-0.057848	3.003256
176.062802	2610.498841	1.186120	-0.057903	3.008646
176.497687	2621.492324	1.191125	-0.057987	3.014028
176.837552	2632.505928	1.196129	-0.058054	3.019396
177.412463	2643.515225	1.201134	-0.058164	3.024787
177.868592	2654.565367	1.206139	-0.058252	3.030171
178.188588	2665.563781	1.211143	-0.058315	3.035500
178.541619	2676.588318	1.216148	-0.058384	3.040838
178.971161	2687.611777	1.221153	-0.058468	3.046176
179.369399	2698.617940	1.226158	-0.058545	3.051492
179.938435	2709.608006	1.231162	-0.058654	3.056816
180.409190	2720.665430	1.236167	-0.058746	3.062148
180.774677	2731.668061	1.241172	-0.058817	3.067429
181.124443	2742.703937	1.246177	-0.058885	3.072716
181.726043	2753.681955	1.251181	-0.059001	3.078001
182.704511	2764.690856	1.256186	-0.059187	3.083344
183.080843	2775.768230	1.261191	-0.059261	3.088625
183.271747	2786.759296	1.266195	-0.059299	3.093832
183.721904	2797.783564	1.271200	-0.059386	3.099081
184.245567	2808.779392	1.276205	-0.059487	3.104317
184.779458	2819.825995	1.281210	-0.059590	3.109571
184.989249	2830.846368	1.286214	-0.059632	3.114758
185.441538	2841.850828	1.291219	-0.059720	3.119962
185.643722	2852.883301	1.296224	-0.059761	3.125137
185.976852	2863.917324	1.301228	-0.059826	3.130321
186.264301	2874.895354	1.306233	-0.059882	3.135464
186.631020	2885.929083	1.311238	-0.059954	3.140636
187.121846	2896.926877	1.316243	-0.060049	3.145799
187.649298	2907.947413	1.321247	-0.060150	3.150969
187.919569	2918.979173	1.326252	-0.060204	3.156101
188.462933	2929.978649	1.331257	-0.060309	3.161247
188.682070	2941.029345	1.336262	-0.060352	3.166364
189.215639	2952.024282	1.341266	-0.060455	3.171489
189.825304	2963.017475	1.346271	-0.060572	3.176615
190.149930	2974.073695	1.351276	-0.060636	3.181723
190.321592	2985.087230	1.356280	-0.060671	3.186784
190.685750	2996.111206	1.361285	-0.060742	3.191866
191.017211	3007.110526	1.366290	-0.060807	3.196925
191.570262	3018.136921	1.371295	-0.060913	3.202017
191.855747	3029.165313	1.376299	-0.060970	3.207067
192.193183	3040.167458	1.381304	-0.061036	3.212104
192.386295	3051.159217	1.386309	-0.061075	3.217109
193.109410	3062.193705	1.391314	-0.061213	3.222195
193.241256	3073.238173	1.396318	-0.061241	3.227200
193.773878	3084.221337	1.401323	-0.061343	3.232222
194.042703	3095.266030	1.406328	-0.061396	3.237229
194.699397	3106.239661	1.411332	-0.061522	3.242247
194.979722	3117.277669	1.416337	-0.061578	3.247237
195.492639	3128.299755	1.421342	-0.061677	3.252242
195.626396	3139.334074	1.426347	-0.061705	3.257197
196.002612	3150.322279	1.431351	-0.061778	3.262154
196.182012	3161.382415	1.436356	-0.061814	3.267110
196.505955	3172.346019	1.441361	-0.061878	3.272035
196.980483	3183.381178	1.446366	-0.061970	3.277002
197.547508	3194.397363	1.451370	-0.062079	3.281966
197.832627	3205.427166	1.456375	-0.062135	3.286892
198.316842	3216.430609	1.461380	-0.062228	3.291824
198.419838	3227.469550	1.466384	-0.062251	3.296716
198.803190	3238.467390	1.471389	-0.062325	3.301619
199.106067	3249.496264	1.476394	-0.062385	3.306517
199.417314	3260.485467	1.481399	-0.062446	3.311392
200.067036	3271.502791	1.486403	-0.062571	3.316314
200.369558	3282.544100	1.491408	-0.062630	3.321195
200.631234	3293.568560	1.496413	-0.062682	3.326058
200.971741	3304.567896	1.501417	-0.062748	3.330911
201.361088	3315.574145	1.506422	-0.062824	3.335767
201.975625	3326.579276	1.511427	-0.062942	3.340643
202.348918	3337.635927	1.516432	-0.063015	3.345504
202.871638	3348.616769	1.521436	-0.063116	3.350343
203.136035	3359.667784	1.526441	-0.063168	3.355175
203.491132	3370.663453	1.531446	-0.063238	3.359986
203.832436	3381.689194	1.536451	-0.063304	3.364802
204.409565	3392.693274	1.541455	-0.063415	3.369630
204.779284	3403.718840	1.546460	-0.063487	3.374435
205.231487	3414.729486	1.551465	-0.063575	3.379236
205.510148	3425.767624	1.556469	-0.063630	3.384022
205.777691	3436.759354	1.561474	-0.063683	3.388780
206.004837	3447.807872	1.566479	-0.063728	3.393550
206.325201	3458.783566	1.571484	-0.063791	3.398294
206.712597	3469.811019	1.576488	-0.063867	3.403061
207.208157	3480.826490	1.581493	-0.063962	3.407829
207.545438	3491.827825	1.586498	-0.064028	3.412565
208.021126	3502.870201	1.591503	-0.064120	3.417329
208.166176	3513.876800	1.596507	-0.064150	3.422031
208.672558	3524.906858	1.601512	-0.064248	3.426780
208.964157	3535.911173	1.606517	-0.064305	3.431486
209.397774	3546.920450	1.611521	-0.064390	3.436204
209.644296	3557.962868	1.616526	-0.064439	3.440907
209.973306	3568.967634	1.621531	-0.064503	3.445598
210.285583	3579.984170	1.626536	-0.064564	3.450285
210.661296	3590.979297	1.631540	-0.064638	3.454965
211.200099	3602.007273	1.636545	-0.064741	3.459670
211.534638	3613.057716	1.641550	-0.064807	3.464355
211.777704	3624.059197	1.646555	-0.064855	3.469002
212.161742	3635.050516	1.651559	-0.064930	3.473655
212.470176	3646.083559	1.656564	-0.064991	3.478311
213.058802	3657.062674	1.661569	-0.065104	3.482970
213.407564	3668.130668	1.666573	-0.065172	3.487632
213.764046	3679.080615	1.671578	-0.065242	3.492239
213.909818	3690.170938	1.676583	-0.065272	3.496875
214.341356	3701.159396	1.681588	-0.065355	3.501495
214.729220	3712.167106	1.686592	-0.065431	3.506111
215.075254	3723.194254	1.691597	-0.065498	3.510725
215.388852	3734.214859	1.696602	-0.065560	3.515326
215.703681	3745.208336	1.701606	-0.065622	3.519910
216.050314	3756.235055	1.706611	-0.065690	3.524505
216.636615	3767.261720	1.711616	-0.065802	3.529121
216.745765	3778.286564	1.716621	-0.065826	3.533677
217.106673	3789.271549	1.721625	-0.065896	3.538239
217.465751	3800.304214	1.726630	-0.065966	3.542814
217.760527	3811.324631	1.731635	-0.066024	3.547371
218.131874	3822.319109	1.736640	-0.066097	3.551919
218.562259	3833.353376	1.741644	-0.066180	3.556485
218.921308	3844.368634	1.746649	-0.066250	3.561029
219.132414	3855.377487	1.751654	-0.066292	3.565548
219.405210	3866.407740	1.756658	-0.066346	3.570078
219.807680	3877.398426	1.761663	-0.066425	3.574599
220.232455	3888.428920	1.766668	-0.066507	3.579133
220.755552	3899.439884	1.771673	-0.066608	3.583664
221.136581	3910.484631	1.776677	-0.066682	3.588187
221.255825	3921.464570	1.781682	-0.066707	3.592651
221.609519	3932.499361	1.786687	-0.066776	3.597156
221.888262	3943.494032	1.791692	-0.066831	3.601631
222.248361	3954.540621	1.796696	-0.066902	3.606130
222.452578	3965.530318	1.801701	-0.066943	3.610584
222.779844	3976.555490	1.806706	-0.067007	3.615059
223.239019	3987.542662	1.811710	-0.067096	3.619528
223.414403	3998.612560	1.816715	-0.067131	3.623994
223.637467	4009.601955	1.821720	-0.067176	3.628428
223.850316	4020.649774	1.826725	-0.067219	3.632878
224.393019	4031.618250	1.831729	-0.067323	3.637326
224.567615	4042.654469	1.836734	-0.067359	3.641757
225.146269	4053.645081	1.841739	-0.067470	3.646207
225.558265	4064.666738	1.846744	-0.067550	3.650645
226.142410	4075.672740	1.851748	-0.067662	3.655091
226.447859	4086.722450	1.856753	-0.067722	3.659519
226.668213	4097.756188	1.861758	-0.067767	3.663926
226.918101	4108.809073	1.866762	-0.067816	3.668338
227.364460	4119.776142	1.871767	-0.067903	3.672732
227.630965	4130.845446	1.876772	-0.067955	3.677142
227.995413	4141.826935	1.881777	-0.068026	3.681522
228.225357	4152.863932	1.886781	-0.068072	3.685905
228.517027	4163.853887	1.891786	-0.068130	3.690271
228.939869	4174.892040	1.896791	-0.068212	3.694664
229.200115	4185.896962	1.901795	-0.068263	3.699021
229.552901	4196.930064	1.906800	-0.068332	3.703394
229.771709	4207.934004	1.911805	-0.068376	3.707737
230.043828	4218.964345	1.916810	-0.068430	3.712090
230.453974	4229.930772	1.921814	-0.068510	3.716427
230.771549	4240.970968	1.926819	-0.068572	3.720779
231.108778	4251.992127	1.931824	-0.068638	3.725120
231.490006	4262.984704	1.936829	-0.068712	3.729449
231.677255	4274.026619	1.941833	-0.068750	3.733772
232.034261	4285.033907	1.946838	-0.068820	3.738094
232.570032	4296.034103	1.951843	-0.068923	3.742426
232.799752	4307.082490	1.956847	-0.068969	3.746742
233.039616	4318.068772	1.961852	-0.069017	3.751029
233.252024	4329.115144	1.966857	-0.069059	3.755332
