Wed Nov 23 17:50:12 2022

Number of Points = 2200
Depth (nm)	Load (µN)	Time (s)	Depth (V)	Load (V)
-2.074347	0.770943	0.000000	-0.001182	1.060471
0.000000	7.543879	0.005005	-0.001573	1.070858
1.944760	16.962265	0.010009	-0.001940	1.084667
3.400890	27.785562	0.015014	-0.002216	1.099937
4.730535	38.893308	0.020019	-0.002468	1.115310
5.833948	50.063464	0.025024	-0.002678	1.130446
6.609827	61.273313	0.030028	-0.002826	1.145278
7.358877	72.379500	0.035033	-0.002970	1.159775
8.264060	83.490892	0.040038	-0.003142	1.174171
8.927459	94.633771	0.045043	-0.003269	1.188322
9.837242	105.716317	0.050047	-0.003443	1.202342
10.715893	116.826489	0.055052	-0.003611	1.216220
11.287598	127.970567	0.060057	-0.003721	1.229846
11.919068	139.070348	0.065061	-0.003842	1.243297
12.630378	150.170562	0.070066	-0.003978	1.256637
18.365393	159.782219	0.075071	-0.005057	1.270236
25.351531	171.327858	0.080076	-0.006370	1.286417
26.182582	183.266963	0.085080	-0.006529	1.300306
27.455184	194.423409	0.090085	-0.006771	1.313353
28.730859	205.491410	0.095090	-0.007013	1.326175
30.160092	216.558123	0.100094	-0.007284	1.338932
31.283025	227.654521	0.105099	-0.007497	1.351480
32.424072	238.770980	0.110104	-0.007714	1.363940
33.712258	249.812301	0.115109	-0.007958	1.376263
35.132266	260.860938	0.120113	-0.008228	1.388534
36.208449	271.999820	0.125118	-0.008432	1.400661
37.650844	283.006851	0.130123	-0.008706	1.412684
38.566975	294.167201	0.135128	-0.008880	1.424567
39.822019	305.175387	0.140132	-0.009119	1.436320
40.677278	316.321207	0.145137	-0.009282	1.447971
41.901347	327.329075	0.150142	-0.009514	1.459523
42.704766	338.445874	0.155146	-0.009668	1.470941
43.869473	349.473858	0.160151	-0.009889	1.482312
44.945238	360.505351	0.165156	-0.010094	1.493567
46.250670	371.583276	0.170161	-0.010341	1.504863
47.289711	382.652295	0.175165	-0.010539	1.515973
48.421691	393.714231	0.180170	-0.010754	1.527027
49.460237	404.788059	0.185175	-0.010952	1.537980
50.571575	415.825738	0.190180	-0.011163	1.548846
51.380696	426.923594	0.195184	-0.011318	1.559590
52.237670	437.988753	0.200189	-0.011481	1.570246
53.280778	448.994479	0.205194	-0.011680	1.580836
54.166380	460.089663	0.210198	-0.011849	1.591385
55.113333	471.137571	0.215203	-0.012029	1.601842
55.941475	482.193450	0.220208	-0.012187	1.612199
56.736228	493.270433	0.225213	-0.012339	1.622497
57.828162	504.263513	0.230217	-0.012547	1.632750
58.599314	515.326862	0.235222	-0.012694	1.642899
59.683101	526.362325	0.240227	-0.012900	1.653059
60.331618	537.465247	0.245232	-0.013025	1.663080
61.358911	548.462407	0.250236	-0.013220	1.673066
62.420945	559.482537	0.255241	-0.013422	1.683022
63.217543	570.589576	0.260246	-0.013574	1.692914
64.049699	581.617791	0.265250	-0.013733	1.702690
64.912952	592.667692	0.270255	-0.013898	1.712438
65.626373	603.719227	0.275260	-0.014034	1.722087
66.650442	614.736459	0.280265	-0.014229	1.731746
67.354769	625.818898	0.285269	-0.014364	1.741310
68.351251	636.814760	0.290274	-0.014554	1.750836
69.265417	647.851292	0.295279	-0.014728	1.760319
69.907049	658.970602	0.300283	-0.014851	1.769740
70.786669	669.954050	0.305288	-0.015019	1.779068
71.854179	680.981850	0.310293	-0.015222	1.788437
72.510814	692.059491	0.315298	-0.015348	1.797680
73.817087	703.014735	0.320302	-0.015596	1.806961
74.386521	714.141872	0.325307	-0.015706	1.816124
75.693051	725.104517	0.330312	-0.015953	1.825316
76.214198	736.233286	0.335317	-0.016054	1.834375
77.231389	747.227875	0.340321	-0.016248	1.843420
78.044494	758.296301	0.345326	-0.016403	1.852423
78.926425	769.302304	0.350331	-0.016571	1.861351
79.792658	780.339211	0.355335	-0.016736	1.870256
80.331595	791.447691	0.360340	-0.016840	1.879086
81.113565	802.415274	0.365345	-0.016990	1.887830
82.064352	813.468914	0.370350	-0.017171	1.896645
82.423549	824.558870	0.375354	-0.017241	1.905289
83.348669	835.529405	0.380359	-0.017417	1.913953
83.901442	846.598975	0.385364	-0.017524	1.922555
84.751252	857.591489	0.390369	-0.017686	1.931137
85.700000	868.624065	0.395373	-0.017867	1.939737
86.596804	879.661932	0.400378	-0.018038	1.948290
87.315174	890.731269	0.405383	-0.018175	1.956782
88.029210	901.755844	0.410387	-0.018312	1.965202
88.652221	912.776124	0.415392	-0.018432	1.973560
89.446943	923.837380	0.420397	-0.018583	1.981956
90.061002	934.850010	0.425402	-0.018701	1.990235
90.994336	945.875649	0.430406	-0.018879	1.998570
91.407621	956.940012	0.435411	-0.018959	2.006767
92.231329	967.948029	0.440416	-0.019117	2.014992
93.142811	978.945179	0.445421	-0.019291	2.023198
94.027191	990.005707	0.450425	-0.019459	2.031409
94.593559	1001.052305	0.455430	-0.019568	2.039498
95.147480	1012.114131	0.460435	-0.019675	2.047562
95.558167	1023.152742	0.465439	-0.019755	2.055544
96.316681	1034.140068	0.470444	-0.019900	2.063542
97.012707	1045.174772	0.475449	-0.020033	2.071528
97.903075	1056.189710	0.480454	-0.020203	2.079515
98.211894	1067.295218	0.485458	-0.020264	2.087396
99.015527	1078.297166	0.490463	-0.020417	2.095293
99.502291	1089.279516	0.495468	-0.020511	2.103071
100.214776	1100.351275	0.500472	-0.020648	2.110935
100.802902	1111.354859	0.505477	-0.020761	2.118693
101.569013	1122.391768	0.510482	-0.020907	2.126488
102.120712	1133.428524	0.515487	-0.021013	2.134204
103.070423	1144.410508	0.520491	-0.021194	2.141946
103.642143	1155.489233	0.525496	-0.021304	2.149639
104.541172	1166.467046	0.530501	-0.021476	2.157311
105.097082	1177.573062	0.535506	-0.021583	2.164964
105.857031	1188.541564	0.540510	-0.021728	2.172543
106.378398	1199.622662	0.545515	-0.021829	2.180117
106.908451	1210.622071	0.550520	-0.021931	2.187612
107.504423	1221.668581	0.555524	-0.022045	2.195128
108.014875	1232.677396	0.560529	-0.022144	2.202573
108.660742	1243.700222	0.565534	-0.022268	2.210033
109.555327	1254.700702	0.570539	-0.022438	2.217507
109.992654	1265.804585	0.575543	-0.022523	2.224924
110.633819	1276.775025	0.580548	-0.022646	2.232272
111.285448	1287.804525	0.585553	-0.022771	2.239638
112.171645	1298.798098	0.590558	-0.022940	2.247006
112.775833	1309.884070	0.595562	-0.023056	2.254349
113.538444	1320.884036	0.600567	-0.023202	2.261647
113.907545	1331.935546	0.605572	-0.023274	2.268869
114.530389	1342.939347	0.610576	-0.023394	2.276092
115.062328	1353.977841	0.615581	-0.023496	2.283294
115.781368	1364.997745	0.620586	-0.023634	2.290502
116.169349	1376.043818	0.625591	-0.023710	2.297633
116.836261	1387.036419	0.630595	-0.023837	2.304768
117.210652	1398.097878	0.635600	-0.023910	2.311861
117.995971	1409.059584	0.640605	-0.024060	2.318957
118.574578	1420.115356	0.645610	-0.024172	2.326046
119.303748	1431.170776	0.650614	-0.024311	2.333144
119.704195	1442.197321	0.655619	-0.024389	2.340135
120.305075	1453.169574	0.660624	-0.024505	2.347112
121.074209	1464.210639	0.665628	-0.024652	2.354146
121.814561	1475.225468	0.670633	-0.024793	2.361136
122.305851	1486.284666	0.675638	-0.024888	2.368082
122.909367	1497.298279	0.680643	-0.025004	2.375003
123.486050	1508.314946	0.685647	-0.025115	2.381899
124.274496	1519.339512	0.690652	-0.025266	2.388823
124.779300	1530.363422	0.695657	-0.025363	2.395669
125.502546	1541.387265	0.700661	-0.025502	2.402539
126.119027	1552.416419	0.705666	-0.025620	2.409371
126.696479	1563.431369	0.710671	-0.025731	2.416167
127.098481	1574.490551	0.715676	-0.025809	2.422936
127.923051	1585.436030	0.720680	-0.025967	2.429701
128.465415	1596.533491	0.725685	-0.026071	2.436483
129.050863	1607.527413	0.730690	-0.026184	2.443192
129.761932	1618.528875	0.735695	-0.026320	2.449911
130.444059	1629.595434	0.740699	-0.026451	2.456645
130.881209	1640.616715	0.745704	-0.026536	2.463286
131.615836	1651.605383	0.750709	-0.026676	2.469948
132.143763	1662.659381	0.755713	-0.026778	2.476589
132.736601	1673.677672	0.760718	-0.026892	2.483204
133.078577	1684.706601	0.765723	-0.026959	2.489760
133.681232	1695.723013	0.770728	-0.027075	2.496341
134.163182	1706.748479	0.775732	-0.027168	2.502887
135.020974	1717.744788	0.780737	-0.027331	2.509469
135.267357	1728.813659	0.785742	-0.027380	2.515961
135.491439	1739.859767	0.790747	-0.027425	2.522419
135.821609	1750.841644	0.795751	-0.027490	2.528842
136.504853	1761.839776	0.800756	-0.027621	2.535325
136.930528	1772.878613	0.805761	-0.027703	2.541767
137.740571	1783.878598	0.810765	-0.027858	2.548241
138.180048	1794.948110	0.815770	-0.027943	2.554669
138.585175	1805.945157	0.820775	-0.028022	2.561034
138.968407	1816.985394	0.825780	-0.028097	2.567403
139.430831	1828.022359	0.830784	-0.028186	2.573769
140.008244	1839.027235	0.835789	-0.028297	2.580122
140.478806	1850.053760	0.840794	-0.028388	2.586452
140.485922	1861.104119	0.845799	-0.028392	2.592696
140.854823	1872.070503	0.850803	-0.028464	2.598943
141.578753	1883.067729	0.855808	-0.028603	2.605256
142.391627	1894.080341	0.860813	-0.028758	2.611578
142.869663	1905.146443	0.865817	-0.028851	2.617855
143.673068	1916.123290	0.870822	-0.029004	2.624125
143.970824	1927.210435	0.875827	-0.029063	2.630351
144.363879	1938.204699	0.880832	-0.029139	2.636527
144.762782	1949.238641	0.885836	-0.029217	2.642712
145.455789	1960.216445	0.890841	-0.029349	2.648903
145.948740	1971.268000	0.895846	-0.029445	2.655085
146.270891	1982.309038	0.900850	-0.029508	2.661217
146.692407	1993.297767	0.905855	-0.029590	2.667324
147.435166	2004.309709	0.910860	-0.029732	2.673484
147.776997	2015.360027	0.915865	-0.029799	2.679582
148.397970	2026.363708	0.920869	-0.029918	2.685689
148.941151	2037.383937	0.925874	-0.030023	2.691777
149.267819	2048.429098	0.930879	-0.030087	2.697828
149.617175	2059.382088	0.935884	-0.030155	2.703819
150.203883	2070.425565	0.940888	-0.030268	2.709886
150.528687	2081.475004	0.945893	-0.030331	2.715898
151.103015	2092.463278	0.950898	-0.030442	2.721906
151.498698	2103.494880	0.955902	-0.030519	2.727894
151.964904	2114.512738	0.960907	-0.030609	2.733872
152.558942	2125.498234	0.965912	-0.030723	2.739842
153.214824	2136.525987	0.970917	-0.030849	2.745832
153.968610	2147.555036	0.975921	-0.030993	2.751825
154.517152	2158.589718	0.980926	-0.031099	2.757774
154.757139	2169.610284	0.985931	-0.031147	2.763652
155.221230	2180.634867	0.990936	-0.031236	2.769556
155.740336	2191.636168	0.995940	-0.031337	2.775444
156.223317	2202.678685	1.000945	-0.031430	2.781335
156.620801	2213.694495	1.005950	-0.031507	2.787186
157.097708	2224.690146	1.010954	-0.031599	2.793026
157.483702	2235.735882	1.015959	-0.031675	2.798866
157.996801	2246.747714	1.020964	-0.031774	2.804696
158.576622	2257.750982	1.025969	-0.031885	2.810521
159.166281	2268.784359	1.030973	-0.031998	2.816350
159.600883	2279.814642	1.035978	-0.032083	2.822141
160.167619	2290.813930	1.040983	-0.032192	2.827925
160.530856	2301.837040	1.045988	-0.032263	2.833676
161.084997	2312.854927	1.050992	-0.032369	2.839444
161.738502	2323.871900	1.055997	-0.032495	2.845215
162.455398	2334.880919	1.061002	-0.032632	2.850980
162.802392	2345.948977	1.066006	-0.032700	2.856705
163.164703	2356.934091	1.071011	-0.032771	2.862379
163.540653	2367.956840	1.076016	-0.032844	2.868062
164.085281	2378.973397	1.081021	-0.032949	2.873758
164.533826	2390.007521	1.086025	-0.033036	2.879436
165.017341	2401.010108	1.091030	-0.033129	2.885092
165.504278	2412.048629	1.096035	-0.033223	2.890756
165.781149	2423.083375	1.101039	-0.033278	2.896374
166.308908	2434.078020	1.106044	-0.033380	2.901999
166.510841	2445.093584	1.111049	-0.033420	2.907574
166.940000	2456.112180	1.116054	-0.033504	2.913175
167.389711	2467.129386	1.121058	-0.033591	2.918767
167.972510	2478.131444	1.126063	-0.033703	2.924361
168.470742	2489.170354	1.131068	-0.033799	2.929950
168.842899	2500.190898	1.136073	-0.033871	2.935499
169.404711	2511.188296	1.141077	-0.033980	2.941055
169.609706	2522.257558	1.146082	-0.034021	2.946583
170.028872	2533.234346	1.151087	-0.034102	2.952086
170.265630	2544.269048	1.156091	-0.034149	2.957581
170.832733	2555.265682	1.161096	-0.034258	2.963096
171.339201	2566.298620	1.166101	-0.034356	2.968609
171.763373	2577.333683	1.171106	-0.034439	2.974100
171.990572	2588.351714	1.176110	-0.034484	2.979544
172.343433	2599.357362	1.181115	-0.034553	2.984990
172.693138	2610.390210	1.186120	-0.034621	2.990440
173.248624	2621.374600	1.191125	-0.034728	2.995885
173.662394	2632.431196	1.196129	-0.034809	3.001335
174.169627	2643.416696	1.201134	-0.034906	3.006755
174.409797	2654.455774	1.206139	-0.034954	3.012151
174.802730	2665.463312	1.211143	-0.035031	3.017545
175.118587	2676.476623	1.216148	-0.035093	3.022920
175.696102	2687.502734	1.221153	-0.035204	3.028330
176.074762	2698.520534	1.226158	-0.035278	3.033697
176.462323	2709.540678	1.231162	-0.035353	3.039057
176.649853	2720.576674	1.236167	-0.035391	3.044387
177.273229	2731.562203	1.241172	-0.035511	3.049745
177.692441	2742.592661	1.246177	-0.035592	3.055086
177.945200	2753.617237	1.251181	-0.035642	3.060391
178.195911	2764.657246	1.256186	-0.035692	3.065695
178.688779	2775.624385	1.261191	-0.035787	3.070988
179.050424	2786.661095	1.266195	-0.035858	3.076287
179.722394	2797.643008	1.271200	-0.035987	3.081594
180.128737	2808.713364	1.276205	-0.036066	3.086896
180.375259	2819.726295	1.281210	-0.036115	3.092140
180.696032	2830.737563	1.286214	-0.036177	3.097384
181.142571	2841.745283	1.291219	-0.036264	3.102635
181.432228	2852.783894	1.296224	-0.036321	3.107870
181.885255	2863.779975	1.301228	-0.036409	3.113099
182.446402	2874.798503	1.306233	-0.036517	3.118344
182.761595	2885.822455	1.311238	-0.036579	3.123549
183.143073	2896.851667	1.316243	-0.036653	3.128757
183.576727	2907.842832	1.321247	-0.036737	3.133946
184.041509	2918.865676	1.326252	-0.036827	3.139144
184.611448	2929.880505	1.331257	-0.036937	3.144345
184.941560	2940.935936	1.336262	-0.037001	3.149523
185.336216	2951.908803	1.341266	-0.037078	3.154663
185.701094	2962.958645	1.346271	-0.037149	3.159826
186.160953	2973.949854	1.351276	-0.037238	3.164967
186.430221	2985.012966	1.356280	-0.037292	3.170106
186.793763	2995.991541	1.361285	-0.037363	3.175211
187.180869	3007.011887	1.366290	-0.037438	3.180330
187.537779	3018.032630	1.371295	-0.037508	3.185436
187.925465	3029.046128	1.376299	-0.037583	3.190536
188.305688	3040.061380	1.381304	-0.037657	3.195626
188.700339	3051.097251	1.386309	-0.037734	3.200720
189.110998	3062.088249	1.391314	-0.037814	3.205788
189.681100	3073.117483	1.396318	-0.037923	3.210885
189.954035	3084.120852	1.401323	-0.037977	3.215924
190.335902	3095.150912	1.406328	-0.038052	3.220981
190.451911	3106.188539	1.411332	-0.038076	3.225998
190.782465	3117.185781	1.416337	-0.038141	3.231018
191.364233	3128.179996	1.421342	-0.038253	3.236061
191.877321	3139.211023	1.426347	-0.038352	3.241104
192.263148	3150.244990	1.431351	-0.038427	3.246123
192.540887	3161.271879	1.436356	-0.038482	3.251118
192.874040	3172.268802	1.441361	-0.038547	3.256098
193.190180	3183.284293	1.446366	-0.038609	3.261077
193.508719	3194.303689	1.451370	-0.038672	3.266051
193.825059	3205.345029	1.456375	-0.038734	3.271026
194.168211	3216.330030	1.461380	-0.038801	3.275972
194.450339	3227.370428	1.466384	-0.038856	3.280927
194.846539	3238.374215	1.471389	-0.038934	3.285873
195.323981	3249.388018	1.476394	-0.039026	3.290826
195.701558	3260.409273	1.481399	-0.039099	3.295762
196.153497	3271.422767	1.486403	-0.039187	3.300697
196.666068	3282.411251	1.491408	-0.039286	3.305620
196.957796	3293.476448	1.496413	-0.039343	3.310543
197.225891	3304.482903	1.501417	-0.039396	3.315429
197.585889	3315.497587	1.506422	-0.039467	3.320323
198.025324	3326.500729	1.511427	-0.039552	3.325215
198.366401	3337.541182	1.516432	-0.039619	3.330103
198.575228	3348.534304	1.521436	-0.039660	3.334947
198.719529	3359.566808	1.526441	-0.039690	3.339794
199.094399	3370.570550	1.531446	-0.039763	3.344649
199.453388	3381.620894	1.536451	-0.039833	3.349515
199.758060	3392.598968	1.541455	-0.039893	3.354336
200.164384	3403.624184	1.546460	-0.039972	3.359183
200.547224	3414.636359	1.551465	-0.040047	3.364014
200.883779	3425.666191	1.556469	-0.040113	3.368840
201.130012	3436.681209	1.561474	-0.040162	3.373642
201.373674	3447.704215	1.566479	-0.040210	3.378441
201.592462	3458.703797	1.571484	-0.040254	3.383219
202.068530	3469.724094	1.576488	-0.040346	3.388030
202.444817	3480.717994	1.581493	-0.040419	3.392811
202.874428	3491.768111	1.586498	-0.040503	3.397616
203.254202	3502.768877	1.591503	-0.040577	3.402387
203.702793	3513.807837	1.596507	-0.040664	3.407175
204.033285	3524.782503	1.601512	-0.040728	3.411915
204.306657	3535.838994	1.606517	-0.040782	3.416677
204.663886	3546.834540	1.611521	-0.040852	3.421416
204.935098	3557.852641	1.616526	-0.040906	3.426148
205.422485	3568.855785	1.621531	-0.041000	3.430892
205.735436	3579.894177	1.626536	-0.041061	3.435624
206.222463	3590.884595	1.631540	-0.041155	3.440349
206.585890	3601.940873	1.636545	-0.041226	3.445082
207.082128	3612.934818	1.641550	-0.041322	3.449796
207.349316	3623.968895	1.646555	-0.041375	3.454495
207.852338	3634.954166	1.651559	-0.041472	3.459194
208.214372	3646.001710	1.656564	-0.041543	3.463896
208.673901	3656.986699	1.661569	-0.041632	3.468577
208.962365	3668.013044	1.666573	-0.041689	3.473249
209.341675	3679.040795	1.671578	-0.041763	3.477926
209.639974	3690.050800	1.676583	-0.041821	3.482580
209.917104	3701.077123	1.681588	-0.041876	3.487231
210.186534	3712.077229	1.686592	-0.041929	3.491865
210.314610	3723.101576	1.691597	-0.041956	3.496487
210.685608	3734.123885	1.696602	-0.042028	3.501129
210.979147	3745.136519	1.701606	-0.042086	3.505752
211.223118	3756.161671	1.706611	-0.042135	3.510368
211.419785	3767.178333	1.711616	-0.042174	3.514970
211.778004	3778.172577	1.716621	-0.042244	3.519574
212.383898	3789.166451	1.721625	-0.042361	3.524200
212.743478	3800.251801	1.726630	-0.042431	3.528830
213.071562	3811.229094	1.731635	-0.042495	3.533406
213.373198	3822.252272	1.736640	-0.042554	3.537991
213.804262	3833.225572	1.741644	-0.042638	3.542565
214.308519	3844.289298	1.746649	-0.042735	3.547177
214.526316	3855.290830	1.751654	-0.042779	3.551727
214.884331	3866.301662	1.756658	-0.042849	3.556289
215.305312	3877.311574	1.761663	-0.042931	3.560853
215.507887	3888.362583	1.766668	-0.042971	3.565403
215.744254	3899.358530	1.771673	-0.043018	3.569929
216.025417	3910.371938	1.776677	-0.043074	3.574461
216.452752	3921.373493	1.781682	-0.043157	3.578998
216.746051	3932.429813	1.786687	-0.043215	3.583537
217.156555	3943.420028	1.791692	-0.043294	3.588056
217.369141	3954.430380	1.796696	-0.043337	3.592556
217.760159	3965.451052	1.801701	-0.043413	3.597074
217.942634	3976.466713	1.806706	-0.043450	3.601562
218.414291	3987.490365	1.811710	-0.043541	3.606078
218.637201	3998.498563	1.816715	-0.043586	3.610556
219.028741	4009.497550	1.821720	-0.043662	3.615042
219.428080	4020.537131	1.826725	-0.043740	3.619540
219.719517	4031.546506	1.831729	-0.043797	3.624008
220.052034	4042.572065	1.836734	-0.043862	3.628482
220.441465	4053.573969	1.841739	-0.043938	3.632947
220.824246	4064.610961	1.846744	-0.044013	3.637419
220.964694	4075.598781	1.851748	-0.044042	3.641841
221.459316	4086.635525	1.856753	-0.044137	3.646314
221.682683	4097.651403	1.861758	-0.044182	3.650745
221.954037	4108.730019	1.866762	-0.044235	3.655200
222.329461	4119.688639	1.871767	-0.044309	3.659613
222.510946	4130.764159	1.876772	-0.044345	3.664047
222.956241	4141.749664	1.881777	-0.044432	3.668467
223.192151	4152.795721	1.886781	-0.044479	3.672884
223.488345	4163.786052	1.891786	-0.044537	3.677280
223.972972	4174.792595	1.896791	-0.044631	3.681697
224.203755	4185.823767	1.901795	-0.044677	3.686091
224.462517	4196.830238	1.906800	-0.044728	3.690473
224.764801	4207.835538	1.911805	-0.044787	3.694855
225.060533	4218.860618	1.916810	-0.044846	3.699238
225.223297	4229.878886	1.921814	-0.044879	3.703599
225.622012	4240.898286	1.926819	-0.044956	3.707980
225.768477	4251.916196	1.931824	-0.044987	3.712329
226.306888	4262.926057	1.936829	-0.045090	3.716710
226.569108	4273.932401	1.941833	-0.045142	3.721056
226.907409	4284.968863	1.946838	-0.045209	3.725417
227.272393	4295.938270	1.951843	-0.045280	3.729748
227.633852	4306.998339	1.956847	-0.045350	3.734110
227.984319	4317.976121	1.961852	-0.045419	3.738433
228.340768	4329.030231	1.966857	-0.045488	3.742782
