Wed Nov 23 19:25:19 2022

Number of Points = 2200
Depth (nm)	Load (µN)	Time (s)	Depth (V)	Load (V)
-112.180688	0.575617	0.000000	0.119314	0.644959
-96.887981	1.233652	0.005005	0.116444	0.659597
-61.092666	1.844962	0.010009	0.109728	0.690608
0.000000	2.597505	0.015014	0.098264	0.739839
91.518810	3.294966	0.020019	0.081091	0.806951
183.166804	15.694818	0.025024	0.063891	0.888431
193.395148	47.912915	0.030028	0.061964	0.946581
195.582761	67.149224	0.035033	0.061549	0.977444
197.395063	80.781320	0.040038	0.061205	0.998880
198.278286	92.827653	0.045043	0.061037	1.017058
199.287368	104.198938	0.050047	0.060845	1.034016
199.966636	115.501858	0.055052	0.060714	1.050431
200.640532	126.698192	0.060057	0.060585	1.066443
206.602085	136.304714	0.065061	0.059464	1.082711
213.260856	147.687223	0.070066	0.058212	1.101469
215.637198	159.483750	0.075071	0.057763	1.118369
217.726282	170.877621	0.080076	0.057368	1.134352
219.340131	182.136706	0.085080	0.057063	1.149713
221.491135	193.179751	0.090085	0.056656	1.164846
223.180433	204.415733	0.095090	0.056336	1.179813
224.734392	215.551008	0.100094	0.056042	1.194405
226.186184	226.703909	0.105099	0.055767	1.208795
227.393257	237.902028	0.110104	0.055538	1.222961
228.618044	248.973714	0.115109	0.055305	1.236821
229.704872	260.098672	0.120113	0.055098	1.250529
231.039393	271.150689	0.125118	0.054845	1.264109
232.372459	282.261873	0.130123	0.054592	1.277611
233.230272	293.429675	0.135128	0.054429	1.290838
234.452171	304.542528	0.140132	0.054197	1.304018
235.470121	315.617035	0.145137	0.054003	1.316938
236.654219	326.632344	0.150142	0.053778	1.329734
237.847641	337.713283	0.155146	0.053551	1.342484
239.032939	348.803865	0.160151	0.053326	1.355119
239.872241	359.952897	0.165156	0.053166	1.367565
240.986966	370.977774	0.170161	0.052954	1.379872
242.366433	381.993440	0.175165	0.052692	1.392162
243.486727	393.131929	0.180170	0.052479	1.404373
244.514448	404.208368	0.185175	0.052284	1.416379
245.480739	415.304077	0.190180	0.052100	1.428281
246.552302	426.333758	0.195184	0.051896	1.440055
247.544204	437.446098	0.200189	0.051707	1.451787
248.414733	448.512524	0.205194	0.051541	1.463334
249.647238	459.508183	0.210198	0.051307	1.474850
250.479944	470.651459	0.215203	0.051148	1.486280
251.370166	481.728179	0.220208	0.050978	1.497577
252.113546	492.772346	0.225213	0.050836	1.508705
252.981119	503.833291	0.230217	0.050671	1.519811
253.824907	514.892152	0.235222	0.050509	1.530826
254.641202	525.961057	0.240227	0.050354	1.541761
255.510029	536.977913	0.245232	0.050188	1.552588
256.522221	548.041695	0.250236	0.049995	1.563432
257.359622	559.114355	0.255241	0.049835	1.574150
258.082389	570.195423	0.260246	0.049697	1.584765
259.244338	581.150920	0.265250	0.049476	1.595338
260.242476	592.246776	0.270255	0.049286	1.605916
261.255864	603.310379	0.275260	0.049093	1.616400
261.903162	614.429943	0.280265	0.048969	1.626748
262.444597	625.452941	0.285269	0.048865	1.636909
263.211696	636.489802	0.290274	0.048718	1.647091
263.955758	647.549615	0.295279	0.048576	1.657224
264.833787	658.566759	0.300283	0.048408	1.667299
265.395303	669.660396	0.305288	0.048300	1.677282
266.184659	680.694644	0.310293	0.048149	1.687224
266.818788	691.727210	0.315298	0.048028	1.697058
267.777453	702.750311	0.320302	0.047845	1.706926
268.362279	713.831614	0.325307	0.047732	1.716674
269.143818	724.859498	0.330312	0.047583	1.726379
269.324851	736.002717	0.335317	0.047546	1.735948
269.714827	747.005207	0.340321	0.047470	1.745408
270.594180	757.964641	0.345326	0.047303	1.754925
271.490667	769.002196	0.350331	0.047132	1.764461
272.311029	780.063029	0.355335	0.046975	1.773943
273.087609	791.105826	0.360340	0.046827	1.783346
273.743572	802.161171	0.365345	0.046701	1.792675
274.759001	813.155427	0.370350	0.046508	1.802008
275.521625	824.234233	0.375354	0.046362	1.811290
276.221252	835.277911	0.380359	0.046228	1.820477
276.937717	846.308859	0.385364	0.046091	1.829613
277.733220	857.353879	0.390369	0.045939	1.838736
278.420653	868.379304	0.395373	0.045807	1.847768
279.078533	879.459090	0.400378	0.045681	1.856791
279.829648	890.472508	0.405383	0.045537	1.865743
280.537515	901.517664	0.410387	0.045401	1.874665
280.989132	912.577707	0.415392	0.045314	1.883486
281.525049	923.606333	0.420397	0.045211	1.892264
282.137939	934.618050	0.425402	0.045093	1.901009
283.155295	945.610211	0.430406	0.044899	1.909807
283.494608	956.746467	0.435411	0.044833	1.918494
283.996373	967.748508	0.440416	0.044736	1.927083
284.558191	978.810193	0.445421	0.044628	1.935694
284.743777	989.851517	0.450425	0.044590	1.944152
285.386282	1000.821066	0.455430	0.044467	1.952639
285.991899	1011.887524	0.460435	0.044351	1.961153
286.377269	1022.932845	0.465439	0.044276	1.969556
287.018235	1033.945188	0.470444	0.044153	1.977965
287.401384	1045.019218	0.475449	0.044078	1.986317
287.870928	1056.048721	0.480454	0.043987	1.994624
288.601938	1067.009895	0.485458	0.043847	2.002912
289.090099	1078.116078	0.490463	0.043753	2.011210
289.647380	1089.128869	0.495468	0.043646	2.019424
289.898760	1100.193841	0.500472	0.043596	2.027565
290.131134	1111.220875	0.505477	0.043549	2.035641
290.664319	1122.211188	0.510482	0.043447	2.043734
291.207241	1133.250174	0.515487	0.043342	2.051831
291.508712	1144.319528	0.520491	0.043283	2.059860
291.736806	1155.339817	0.525496	0.043237	2.067803
292.113476	1166.377573	0.530501	0.043164	2.075765
292.636419	1177.347687	0.535506	0.043063	2.083684
293.261996	1188.399106	0.540510	0.042943	2.091655
293.835576	1199.432434	0.545515	0.042832	2.099570
294.092055	1210.494816	0.550520	0.042782	2.107399
294.211868	1221.556227	0.555524	0.042756	2.115167
294.462585	1232.552298	0.560529	0.042707	2.122891
294.713804	1243.561498	0.565534	0.042657	2.130597
295.275848	1254.570261	0.570539	0.042548	2.138347
295.568025	1265.629332	0.575543	0.042491	2.146041
295.824246	1276.690322	0.580548	0.042440	2.153700
295.894131	1287.702227	0.585553	0.042424	2.161255
296.333202	1298.695610	0.590558	0.042339	2.168856
296.734541	1309.736079	0.595562	0.042261	2.176454
297.171575	1320.775405	0.600567	0.042176	2.184033
297.313697	1331.814086	0.605572	0.042147	2.191518
297.623195	1342.829395	0.610576	0.042086	2.198999
297.480158	1353.903683	0.615581	0.042110	2.206392
297.930115	1364.862530	0.620586	0.042023	2.213817
298.448537	1375.870183	0.625591	0.041923	2.221265
298.766813	1386.931221	0.630595	0.041861	2.228678
299.166887	1397.964578	0.635600	0.041783	2.236067
299.458277	1408.990074	0.640605	0.041725	2.243402
299.684015	1420.002600	0.645610	0.041680	2.250689
300.149639	1431.047625	0.650614	0.041590	2.258028
300.411911	1442.074211	0.655619	0.041538	2.265285
300.671532	1453.079858	0.660624	0.041487	2.272506
300.828095	1464.148446	0.665628	0.041455	2.279721
301.017858	1475.137590	0.670633	0.041416	2.286870
301.429534	1486.165664	0.675638	0.041336	2.294069
301.746258	1497.181702	0.680643	0.041274	2.301218
301.859987	1508.222860	0.685647	0.041250	2.308317
302.403178	1519.235188	0.690652	0.041146	2.315467
302.388367	1530.284778	0.695657	0.041146	2.322500
302.938850	1541.287240	0.700661	0.041040	2.329601
303.202780	1552.317373	0.705666	0.040987	2.336638
303.717242	1563.311897	0.710671	0.040888	2.343684
303.955135	1574.372935	0.715676	0.040841	2.350693
304.177822	1585.411856	0.720680	0.040796	2.357663
304.350811	1596.405036	0.725685	0.040761	2.364575
304.910562	1607.417271	0.730690	0.040653	2.371557
305.292406	1618.435417	0.735695	0.040579	2.378486
305.806981	1629.462383	0.740699	0.040480	2.385427
306.088760	1640.521208	0.745704	0.040424	2.392321
306.288233	1651.559117	0.750709	0.040384	2.399164
306.367242	1662.571899	0.755713	0.040366	2.405949
306.921323	1673.566911	0.760718	0.040260	2.412799
307.315003	1684.559806	0.765723	0.040183	2.419596
308.369357	1695.569010	0.770728	0.039982	2.426516
308.543556	1706.669460	0.775732	0.039947	2.433296
308.843586	1717.668551	0.780737	0.039888	2.440020
309.253528	1728.670700	0.785742	0.039808	2.446750
310.135977	1739.678214	0.790747	0.039640	2.453557
310.340896	1750.736146	0.795751	0.039599	2.460243
310.858346	1761.731697	0.800756	0.039499	2.466934
311.061801	1772.825383	0.805761	0.039458	2.473604
311.579579	1783.769393	0.810765	0.039358	2.480228
312.166535	1794.812372	0.815770	0.039245	2.486907
312.636229	1805.866100	0.820775	0.039155	2.493551
313.034572	1816.842372	0.825780	0.039077	2.500118
313.323818	1827.906093	0.830784	0.039020	2.506698
313.715341	1838.928082	0.835789	0.038944	2.513255
314.282547	1849.916002	0.840794	0.038835	2.519810
314.869490	1860.919735	0.845799	0.038722	2.526359
315.371948	1871.997389	0.850803	0.038625	2.532919
315.712494	1882.986934	0.855808	0.038558	2.539380
316.134925	1894.030692	0.860813	0.038476	2.545871
316.582204	1905.039343	0.865817	0.038390	2.552330
317.200467	1916.038345	0.870822	0.038271	2.558799
317.713211	1927.082738	0.875827	0.038172	2.565258
318.162746	1938.135547	0.880832	0.038085	2.571693
318.464629	1949.208068	0.885836	0.038025	2.578097
318.842032	1960.144037	0.890841	0.037952	2.584420
319.208471	1971.182620	0.895846	0.037880	2.590784
319.584549	1982.187261	0.900850	0.037807	2.597115
320.049468	1993.214990	0.905855	0.037717	2.603460
320.536163	2004.230437	0.910860	0.037623	2.609786
320.891325	2015.265067	0.915865	0.037554	2.616084
321.351913	2026.274448	0.920869	0.037465	2.622371
321.861026	2037.283406	0.925874	0.037366	2.628652
322.485180	2048.309657	0.930879	0.037246	2.634947
322.728431	2059.309863	0.935884	0.037198	2.641145
323.223959	2070.349009	0.940888	0.037102	2.647395
323.610562	2081.386195	0.945893	0.037027	2.653610
324.017577	2092.370697	0.950898	0.036948	2.659784
324.779929	2103.350563	0.955902	0.036802	2.666004
325.671357	2114.399725	0.960907	0.036632	2.672270
326.137648	2125.441593	0.965912	0.036542	2.678443
326.603408	2136.451794	0.970917	0.036452	2.684584
327.007486	2147.494849	0.975921	0.036373	2.690718
327.622158	2158.476976	0.980926	0.036255	2.696841
328.021060	2169.531408	0.985931	0.036178	2.702953
328.556203	2180.525903	0.990936	0.036075	2.709041
328.842351	2191.583688	0.995940	0.036018	2.715107
329.285920	2202.595600	1.000945	0.035932	2.721162
329.562102	2213.621342	1.005950	0.035878	2.727181
330.106705	2224.627152	1.010954	0.035773	2.733223
330.561557	2235.619611	1.015959	0.035685	2.739228
330.913347	2246.688350	1.020964	0.035616	2.745244
331.352506	2257.683941	1.025969	0.035531	2.751222
331.927643	2268.709747	1.030973	0.035420	2.757226
332.098715	2279.736774	1.035978	0.035385	2.763150
332.570676	2290.747319	1.040983	0.035294	2.769102
332.875457	2301.781050	1.045988	0.035234	2.775026
333.347633	2312.766389	1.050992	0.035143	2.780939
333.868576	2323.813534	1.055997	0.035042	2.786881
334.207101	2334.837850	1.061002	0.034976	2.792767
334.523523	2345.835895	1.066006	0.034914	2.798624
334.981478	2356.880920	1.071011	0.034825	2.804516
335.521144	2367.874947	1.076016	0.034721	2.810382
335.964684	2378.919530	1.081021	0.034635	2.816247
336.262292	2389.932115	1.086025	0.034577	2.822059
336.811994	2400.925404	1.091030	0.034471	2.827890
337.138812	2411.975213	1.096035	0.034407	2.833702
337.458590	2422.991407	1.101039	0.034344	2.839483
337.825737	2434.006747	1.106044	0.034272	2.845260
338.230797	2445.034399	1.111049	0.034194	2.851037
338.676802	2456.032961	1.116054	0.034107	2.856794
338.979454	2467.074282	1.121058	0.034048	2.862538
339.209889	2478.083342	1.126063	0.034002	2.868243
339.643716	2489.110298	1.131068	0.033918	2.873978
339.944201	2500.119199	1.136073	0.033859	2.879671
340.532593	2511.128231	1.141077	0.033745	2.885398
340.643293	2522.199590	1.146082	0.033722	2.891070
340.989033	2533.183872	1.151087	0.033654	2.896724
341.356193	2544.188366	1.156091	0.033583	2.902380
341.771562	2555.215986	1.161096	0.033502	2.908044
341.952862	2566.244783	1.166101	0.033465	2.913662
342.476599	2577.243444	1.171106	0.033364	2.919306
342.746586	2588.274095	1.176110	0.033311	2.924916
343.390779	2599.284531	1.181115	0.033187	2.930563
343.473616	2610.321688	1.186120	0.033169	2.936126
344.073896	2621.315541	1.191125	0.033054	2.941736
344.320748	2632.353873	1.196129	0.033005	2.947303
344.606005	2643.357933	1.201134	0.032948	2.952849
345.069328	2654.373966	1.206139	0.032859	2.958417
345.546101	2665.411595	1.211143	0.032767	2.963987
345.985861	2676.414515	1.216148	0.032681	2.969524
346.356149	2687.453239	1.221153	0.032609	2.975058
346.528601	2698.478854	1.226158	0.032574	2.980545
347.161068	2709.450272	1.231162	0.032453	2.986064
347.470902	2720.506039	1.236167	0.032392	2.991567
347.817142	2731.505545	1.241172	0.032324	2.997036
348.098715	2742.532974	1.246177	0.032268	3.002500
348.542607	2753.547163	1.251181	0.032182	3.007972
348.946089	2764.559633	1.256186	0.032104	3.013426
349.288857	2775.598635	1.261191	0.032037	3.018874
349.479442	2786.614726	1.266195	0.031998	3.024280
349.761036	2797.646497	1.271200	0.031943	3.029696
350.004336	2808.638502	1.276205	0.031895	3.035078
350.505881	2819.659771	1.281210	0.031798	3.040502
350.648829	2830.693249	1.286214	0.031768	3.045869
351.339713	2841.683834	1.291219	0.031636	3.051286
351.566886	2852.711665	1.296224	0.031590	3.056645
351.748529	2863.727322	1.301228	0.031554	3.061981
352.078556	2874.748649	1.306233	0.031489	3.067332
352.460770	2885.772082	1.311238	0.031415	3.072683
352.751855	2896.782335	1.316243	0.031357	3.078004
353.137978	2907.809148	1.321247	0.031282	3.083338
353.209836	2918.832487	1.326252	0.031266	3.088616
353.520549	2929.843143	1.331257	0.031205	3.093912
353.882223	2940.858546	1.336262	0.031134	3.099210
354.320713	2951.868452	1.341266	0.031049	3.104506
354.642314	2962.901957	1.346271	0.030986	3.109788
354.792467	2973.922847	1.351276	0.030955	3.115030
355.207036	2984.925288	1.356280	0.030875	3.120292
355.670986	2995.948713	1.361285	0.030785	3.125562
356.036616	3006.970528	1.366290	0.030714	3.130809
356.462670	3017.958230	1.371295	0.030631	3.136039
356.997807	3028.966537	1.376299	0.030528	3.141285
357.387526	3040.025926	1.381304	0.030452	3.146526
357.495048	3051.042946	1.386309	0.030429	3.151699
357.613319	3062.081045	1.391314	0.030404	3.156875
357.931195	3073.041365	1.396318	0.030342	3.162034
358.577582	3084.093338	1.401323	0.030218	3.167272
358.675868	3095.095658	1.406328	0.030196	3.172403
358.968835	3106.137690	1.411332	0.030139	3.177571
359.190699	3117.131173	1.416337	0.030094	3.182698
359.631956	3128.162288	1.421342	0.030009	3.187864
359.999821	3139.164873	1.426347	0.029937	3.192999
360.288639	3150.198421	1.431351	0.029880	3.198129
360.684627	3161.205914	1.436356	0.029803	3.203252
360.947090	3172.245125	1.441361	0.029751	3.208365
361.299770	3183.229747	1.446366	0.029682	3.213456
361.685866	3194.257218	1.451370	0.029607	3.218563
362.066803	3205.253586	1.456375	0.029533	3.223647
362.464781	3216.299008	1.461380	0.029456	3.228747
362.584468	3227.307916	1.466384	0.029430	3.233786
363.003730	3238.329840	1.471389	0.029349	3.238862
363.274068	3249.341047	1.476394	0.029295	3.243906
363.817174	3260.368735	1.481399	0.029191	3.248985
363.990870	3271.378049	1.486403	0.029156	3.254000
364.407257	3282.381586	1.491408	0.029075	3.259036
364.596125	3293.418236	1.496413	0.029037	3.264049
364.895264	3304.442442	1.501417	0.028978	3.269063
365.275447	3315.439122	1.506422	0.028904	3.274068
365.844992	3326.446628	1.511427	0.028794	3.279094
366.196192	3337.470166	1.516432	0.028725	3.284091
366.636929	3348.501247	1.521436	0.028640	3.289096
366.794051	3359.530205	1.526441	0.028608	3.294056
367.125118	3370.522070	1.531446	0.028543	3.299013
367.366054	3381.542527	1.536451	0.028495	3.303965
367.770060	3392.571116	1.541455	0.028416	3.308933
367.952107	3403.576025	1.546460	0.028380	3.313855
368.249043	3414.604858	1.551465	0.028321	3.318795
368.453959	3425.615332	1.556469	0.028280	3.323708
368.849426	3436.643186	1.561474	0.028203	3.328645
369.161830	3447.632999	1.566479	0.028142	3.333548
369.557806	3458.659458	1.571484	0.028065	3.338470
369.875347	3469.686548	1.576488	0.028002	3.343375
370.322427	3480.688548	1.581493	0.027916	3.348277
370.476985	3491.720161	1.586498	0.027884	3.353150
371.013493	3502.733429	1.591503	0.027781	3.358054
371.518782	3513.715146	1.596507	0.027683	3.362933
372.109785	3524.754080	1.601512	0.027569	3.367841
372.332968	3535.791754	1.606517	0.027525	3.372696
372.644877	3546.802010	1.611521	0.027464	3.377542
372.812391	3557.807324	1.616526	0.027429	3.382362
373.384246	3568.817661	1.621531	0.027319	3.387226
373.755609	3579.839502	1.626536	0.027247	3.392064
374.381360	3590.837158	1.631540	0.027127	3.396916
374.625637	3601.877136	1.636545	0.027078	3.401732
375.030574	3612.899654	1.641550	0.027000	3.406553
375.284947	3623.902887	1.646555	0.026949	3.411341
375.749542	3634.929781	1.651559	0.026859	3.416158
376.227694	3645.918185	1.656564	0.026767	3.420953
376.558068	3656.981731	1.661569	0.026702	3.425755
376.737576	3667.980248	1.666573	0.026666	3.430505
377.039118	3678.985762	1.671578	0.026606	3.435266
377.475690	3690.010908	1.676583	0.026522	3.440044
378.129675	3701.018550	1.681588	0.026396	3.444834
378.391139	3712.055814	1.686592	0.026344	3.449584
378.660564	3723.059503	1.691597	0.026291	3.454313
378.903209	3734.085197	1.696602	0.026243	3.459043
379.263943	3745.084078	1.701606	0.026172	3.463768
379.617258	3756.119472	1.706611	0.026103	3.468501
380.100818	3767.096873	1.711616	0.026010	3.473218
380.376082	3778.158026	1.716621	0.025956	3.477940
380.665137	3789.150259	1.721625	0.025899	3.482628
380.927406	3800.178970	1.726630	0.025847	3.487322
381.264094	3811.186097	1.731635	0.025781	3.492009
381.849866	3822.171186	1.736640	0.025668	3.496710
382.409240	3833.212959	1.741644	0.025560	3.501424
382.711697	3844.254231	1.746649	0.025501	3.506102
382.909588	3855.249841	1.751654	0.025461	3.510743
383.328364	3866.266195	1.756658	0.025380	3.515412
383.914430	3877.254215	1.761663	0.025267	3.520081
384.280381	3888.318815	1.766668	0.025196	3.524752
384.672300	3899.336028	1.771673	0.025119	3.529399
384.780101	3910.358483	1.776677	0.025096	3.534010
385.068550	3921.356886	1.781682	0.025040	3.538625
385.336887	3932.367864	1.786687	0.024987	3.543237
385.647118	3943.379080	1.791692	0.024926	3.547848
386.141218	3954.367941	1.796696	0.024830	3.552464
386.592815	3965.413946	1.801701	0.024743	3.557093
387.046453	3976.430435	1.806706	0.024655	3.561704
387.349360	3987.455431	1.811710	0.024595	3.566296
387.743347	3998.442371	1.816715	0.024519	3.570875
388.226995	4009.471918	1.821720	0.024425	3.575477
388.588664	4020.480647	1.826725	0.024355	3.580050
388.959840	4031.525539	1.831729	0.024282	3.584634
389.309773	4042.503902	1.836734	0.024214	3.589182
390.010340	4053.525116	1.841739	0.024080	3.593780
390.440206	4064.569532	1.846744	0.023996	3.598352
390.888051	4075.562495	1.851748	0.023909	3.602898
391.082118	4086.619226	1.856753	0.023870	3.607438
391.432480	4097.616954	1.861758	0.023802	3.611964
392.060853	4108.648160	1.866762	0.023681	3.616529
392.473459	4119.670777	1.871767	0.023601	3.621061
393.140651	4130.687469	1.876772	0.023473	3.625612
393.485653	4141.698855	1.881777	0.023406	3.630121
393.664337	4152.749920	1.886781	0.023369	3.634622
394.045395	4163.723373	1.891786	0.023295	3.639107
394.248734	4174.767066	1.896791	0.023254	3.643597
394.961837	4185.754579	1.901795	0.023118	3.648113
395.202025	4196.810170	1.906800	0.023070	3.652600
395.487672	4207.804007	1.911805	0.023014	3.657061
395.727784	4218.808795	1.916810	0.022966	3.661516
396.247357	4229.849894	1.921814	0.022866	3.666010
396.634110	4240.841953	1.926819	0.022790	3.670465
397.272208	4251.871184	1.931824	0.022668	3.674956
397.525410	4262.885354	1.936829	0.022618	3.679394
397.944990	4273.902962	1.941833	0.022536	3.683846
398.239605	4284.937325	1.946838	0.022478	3.688287
398.609661	4295.914614	1.951843	0.022406	3.692706
399.115575	4306.953696	1.956847	0.022308	3.697160
399.500667	4317.943955	1.961852	0.022233	3.701575
399.737870	4328.995706	1.966857	0.022186	3.705995
399.982274	4339.998422	1.971862	0.022138	3.710390
400.157388	4350.997014	1.976866	0.022102	3.714772
401.000306	4361.995831	1.981871	0.021941	3.719217
401.374957	4373.056840	1.986876	0.021868	3.723633
401.638961	4384.061251	1.991881	0.021816	3.728010
401.848316	4395.096955	1.996885	0.021774	3.732389
