Wed Nov 23 18:09:14 2022

Number of Points = 2200
Depth (nm)	Load (µN)	Time (s)	Depth (V)	Load (V)
0.000000	2.313757	0.000000	0.061603	0.873609
4.058390	6.683390	0.005005	0.060840	0.883522
10.473218	14.506754	0.010009	0.059635	0.900471
16.333413	24.897440	0.015014	0.058532	0.920905
20.327551	36.350676	0.020019	0.057780	0.941470
23.130782	47.939929	0.025024	0.057251	0.961121
24.898462	59.510992	0.030028	0.056917	0.979768
26.317566	70.867706	0.035033	0.056648	0.997555
27.261250	82.211266	0.040038	0.056468	1.014754
27.986337	93.465310	0.045043	0.056329	1.031421
28.575825	104.678071	0.050047	0.056216	1.047693
29.209879	115.866128	0.055052	0.056094	1.063704
29.786620	126.986404	0.060057	0.055983	1.079355
30.455086	138.140557	0.065061	0.055855	1.094874
30.900486	149.302878	0.070066	0.055768	1.110077
31.426217	160.444888	0.075071	0.055667	1.125085
31.588798	171.642396	0.080076	0.055634	1.139795
32.112921	182.702858	0.085080	0.055533	1.154312
32.601612	193.801743	0.090085	0.055438	1.168680
33.309723	204.877778	0.095090	0.055302	1.182945
33.572280	216.062389	0.100094	0.055250	1.196972
34.012507	227.145248	0.105099	0.055165	1.210792
34.260557	238.310382	0.110104	0.055116	1.224470
34.918390	249.307898	0.115109	0.054990	1.237975
35.255987	260.443834	0.120113	0.054923	1.251360
35.723498	271.556517	0.125118	0.054833	1.264631
36.070211	282.640158	0.130123	0.054765	1.277679
36.406399	293.741261	0.135128	0.054699	1.290610
36.969230	304.823194	0.140132	0.054591	1.303485
52.853199	312.255038	0.145137	0.051609	1.318400
59.903476	325.775452	0.150142	0.050282	1.336322
60.631883	337.843546	0.155146	0.050143	1.349899
61.440613	349.069853	0.160151	0.049988	1.362459
62.365295	360.136414	0.165156	0.049812	1.374777
62.965784	371.286907	0.170161	0.049697	1.386949
64.099672	382.269253	0.175165	0.049481	1.399042
64.957889	393.348006	0.180170	0.049317	1.411027
66.288674	404.355148	0.185175	0.049065	1.423013
67.105838	415.514817	0.190180	0.048909	1.434865
68.068270	426.579585	0.195184	0.048725	1.446575
69.162420	437.612086	0.200189	0.048517	1.458206
70.366218	448.651896	0.205194	0.048289	1.469792
71.286762	459.741501	0.210198	0.048113	1.481235
72.302406	470.809066	0.215203	0.047920	1.492601
72.928376	481.956756	0.220208	0.047800	1.503821
73.945465	492.914880	0.225213	0.047606	1.514911
74.965955	503.975074	0.230217	0.047412	1.526019
76.338228	515.004986	0.235222	0.047152	1.537139
77.023282	526.158238	0.240227	0.047021	1.548060
78.103529	537.167555	0.245232	0.046815	1.558902
78.912607	548.228932	0.250236	0.046661	1.569627
79.941128	559.270762	0.255241	0.046465	1.580333
80.922550	570.306591	0.260246	0.046278	1.590946
81.695282	581.448892	0.265250	0.046130	1.601517
82.239254	592.499601	0.270255	0.046025	1.611860
83.259761	603.487409	0.275260	0.045831	1.622234
83.893396	614.599179	0.280265	0.045710	1.632529
85.108827	625.530335	0.285269	0.045479	1.642783
86.107030	636.615845	0.290274	0.045289	1.653041
87.296762	647.656435	0.295279	0.045063	1.663257
87.891436	658.800179	0.300283	0.044948	1.673314
88.807648	669.784129	0.305288	0.044774	1.683270
89.547588	680.854359	0.310293	0.044632	1.693188
90.561825	691.884914	0.315298	0.044439	1.703098
91.007909	702.981624	0.320302	0.044353	1.712834
91.754285	713.981783	0.325307	0.044210	1.722522
92.534122	725.038483	0.330312	0.044061	1.732215
93.617297	736.054898	0.335317	0.043855	1.741910
94.113353	747.147607	0.340321	0.043759	1.751440
95.002287	758.156168	0.345326	0.043589	1.760964
95.604091	769.215896	0.350331	0.043474	1.770394
96.433207	780.262773	0.355335	0.043316	1.779831
96.980493	791.284785	0.360340	0.043210	1.789114
98.350457	802.251474	0.365345	0.042950	1.798541
98.929247	813.395034	0.370350	0.042839	1.807837
99.996954	824.352203	0.375354	0.042636	1.817072
100.453697	835.488245	0.380359	0.042547	1.826231
101.427003	846.449262	0.385364	0.042362	1.835350
102.144252	857.535674	0.390369	0.042225	1.844451
103.177979	868.513100	0.395373	0.042028	1.853509
103.922390	879.603445	0.400378	0.041886	1.862531
104.697825	890.667505	0.405383	0.041737	1.871498
105.384422	901.675529	0.410387	0.041606	1.880353
106.263694	912.676898	0.415392	0.041438	1.889213
107.163799	923.730906	0.420397	0.041267	1.898079
108.003964	934.777476	0.425402	0.041106	1.906881
108.692870	945.828530	0.430406	0.040974	1.915605
109.394376	956.847818	0.435411	0.040840	1.924268
110.020564	967.908307	0.440416	0.040720	1.932903
110.966647	978.911413	0.445421	0.040539	1.941541
111.543281	989.975254	0.450425	0.040428	1.950089
112.083280	1001.022295	0.455430	0.040324	1.958577
112.486195	1012.069995	0.460435	0.040246	1.966993
113.163049	1023.074363	0.465439	0.040116	1.975411
113.977210	1034.086420	0.470444	0.039961	1.983835
114.964653	1045.090171	0.475449	0.039773	1.992260
115.554049	1056.195402	0.480454	0.039659	2.000624
116.271140	1067.214100	0.485458	0.039522	2.008921
116.511971	1078.294677	0.490463	0.039474	2.017109
117.480390	1089.235487	0.495468	0.039290	2.025344
118.018882	1100.331166	0.500472	0.039186	2.033551
118.974833	1111.283266	0.505477	0.039004	2.041724
119.773538	1122.335758	0.510482	0.038851	2.049898
120.548440	1133.418845	0.515487	0.038703	2.058055
121.041242	1144.436074	0.520491	0.038608	2.066063
121.711307	1155.462481	0.525496	0.038479	2.074090
122.515407	1166.464424	0.530501	0.038326	2.082101
123.368532	1177.510360	0.535506	0.038163	2.090124
123.705088	1188.598765	0.540510	0.038097	2.098021
124.272820	1199.571953	0.545515	0.037988	2.105864
125.282711	1210.576183	0.550520	0.037796	2.113803
126.019594	1221.629148	0.555524	0.037655	2.121682
126.222386	1232.742552	0.560529	0.037614	2.129448
127.001407	1243.679163	0.565534	0.037465	2.137198
127.496931	1254.721435	0.570539	0.037369	2.144927
128.197362	1265.767039	0.575543	0.037235	2.152677
129.017724	1276.748887	0.580548	0.037078	2.160384
129.800547	1287.808703	0.585553	0.036929	2.168107
130.243321	1298.882266	0.590558	0.036843	2.175734
130.957148	1309.843109	0.595562	0.036706	2.183320
131.708597	1320.860306	0.600567	0.036563	2.190926
132.434855	1331.935874	0.605572	0.036424	2.198539
132.938148	1342.962068	0.610576	0.036326	2.206042
133.512552	1354.001797	0.615581	0.036216	2.213544
133.846791	1365.032835	0.620586	0.036150	2.220961
134.388439	1376.042172	0.625591	0.036046	2.228385
135.206840	1387.032558	0.630595	0.035890	2.235833
136.131885	1398.059839	0.635600	0.035714	2.243304
136.624665	1409.143172	0.640605	0.035618	2.250691
137.113217	1420.169409	0.645610	0.035524	2.258016
137.290908	1431.214464	0.650614	0.035488	2.265262
138.249093	1442.128894	0.655619	0.035305	2.272569
138.865560	1453.227637	0.660624	0.035187	2.279897
139.689393	1464.218835	0.665628	0.035030	2.287178
140.357276	1475.283452	0.670633	0.034902	2.294448
140.776089	1486.321273	0.675638	0.034820	2.301625
141.162992	1497.327209	0.680643	0.034745	2.308752
141.915602	1508.341073	0.685647	0.034601	2.315940
142.281754	1519.381102	0.690652	0.034530	2.323040
143.095178	1530.370663	0.695657	0.034374	2.330181
143.769213	1541.432409	0.700661	0.034245	2.337316
144.416666	1552.435431	0.705666	0.034121	2.344386
144.926390	1563.473353	0.710671	0.034022	2.351428
145.689035	1574.497324	0.715676	0.033877	2.358493
146.060632	1585.528586	0.720680	0.033804	2.365460
146.596923	1596.578158	0.725685	0.033701	2.372452
146.736028	1607.608145	0.730690	0.033672	2.379329
147.509335	1618.560354	0.735695	0.033524	2.386268
148.412419	1629.602867	0.740699	0.033352	2.393269
148.921523	1640.638567	0.745704	0.033254	2.400165
149.778460	1651.642427	0.750709	0.033090	2.407091
150.047190	1662.748963	0.755713	0.033037	2.413942
150.388990	1673.724357	0.760718	0.032970	2.420708
150.952487	1684.715448	0.765723	0.032862	2.427509
151.690757	1695.760722	0.770728	0.032720	2.434359
151.966369	1706.804456	0.775732	0.032666	2.441096
152.500363	1717.812087	0.780737	0.032563	2.447844
152.983181	1728.839337	0.785742	0.032470	2.454575
153.442412	1739.863361	0.790747	0.032381	2.461280
154.033033	1750.886697	0.795751	0.032267	2.467993
154.551579	1761.898721	0.800756	0.032167	2.474666
155.012347	1772.939342	0.805761	0.032078	2.481328
155.357105	1783.968342	0.810765	0.032011	2.487941
156.213690	1794.943696	0.815770	0.031847	2.494604
156.932952	1805.962295	0.820775	0.031709	2.501248
157.469620	1817.032111	0.825780	0.031606	2.507870
157.919525	1828.040386	0.830784	0.031519	2.514421
158.376233	1839.064611	0.835789	0.031430	2.520966
158.832045	1850.098371	0.840794	0.031342	2.527499
159.428357	1861.094100	0.845799	0.031228	2.534019
160.012663	1872.116704	0.850803	0.031115	2.540536
160.446683	1883.154494	0.855808	0.031031	2.547016
161.003557	1894.180243	0.860813	0.030924	2.553496
161.233344	1905.217350	0.865817	0.030878	2.559905
161.692259	1916.224035	0.870822	0.030789	2.566323
162.324928	1927.240512	0.875827	0.030668	2.572762
162.879640	1938.308391	0.880832	0.030561	2.579201
163.498838	1949.278584	0.885836	0.030442	2.585579
164.007989	1960.268188	0.890841	0.030344	2.591932
164.454746	1971.356931	0.895846	0.030257	2.598314
164.823152	1982.344286	0.900850	0.030185	2.604609
165.363920	1993.379769	0.905855	0.030081	2.610947
165.899537	2004.379070	0.910860	0.029978	2.617248
166.245038	2015.425889	0.915865	0.029910	2.623527
166.633890	2026.442911	0.920869	0.029835	2.629781
167.041008	2037.438158	0.925874	0.029755	2.636011
168.139716	2048.425584	0.930879	0.029547	2.642346
168.961342	2059.434141	0.935884	0.029390	2.648627
169.386041	2070.503053	0.940888	0.029307	2.654857
169.623114	2081.535409	0.945893	0.029260	2.661018
170.062064	2092.531160	0.950898	0.029175	2.667181
170.824545	2103.531663	0.955902	0.029029	2.673388
171.422188	2114.563401	0.960907	0.028914	2.679570
172.115025	2125.561642	0.965912	0.028782	2.685735
172.472779	2136.661448	0.970917	0.028712	2.691883
172.848865	2147.619609	0.975921	0.028638	2.697943
173.266711	2158.671006	0.980926	0.028557	2.704047
173.911054	2169.656267	0.985931	0.028434	2.710140
174.457117	2180.688909	0.990936	0.028328	2.716228
175.042848	2191.724124	0.995940	0.028216	2.722311
175.414344	2202.733259	1.000945	0.028143	2.728329
176.070292	2213.750591	1.005950	0.028018	2.734387
176.705516	2224.750963	1.010954	0.027896	2.740418
177.221602	2235.784740	1.015959	0.027796	2.746434
177.935932	2246.817851	1.020964	0.027659	2.752469
178.029225	2257.851237	1.025969	0.027639	2.758387
178.206966	2268.897784	1.030973	0.027603	2.764314
178.748411	2279.874326	1.035978	0.027499	2.770251
179.269890	2290.870170	1.040983	0.027398	2.776182
179.826147	2301.939421	1.045988	0.027291	2.782145
180.210009	2312.935778	1.050992	0.027216	2.788028
180.497052	2323.965338	1.055997	0.027160	2.793900
180.819535	2334.990809	1.061002	0.027096	2.799764
181.486493	2345.948558	1.066006	0.026969	2.805636
182.169339	2357.021622	1.071011	0.026838	2.811558
182.977665	2367.993337	1.076016	0.026683	2.817435
183.598728	2379.036952	1.081021	0.026564	2.823307
184.128255	2390.070998	1.086025	0.026462	2.829147
184.366681	2401.122051	1.091030	0.026414	2.834936
185.008743	2412.092031	1.096035	0.026291	2.840737
185.551770	2423.139979	1.101039	0.026187	2.846550
186.054459	2434.151134	1.106044	0.026090	2.852325
186.215045	2445.175844	1.111049	0.026057	2.858041
186.692269	2456.186990	1.116054	0.025964	2.863789
187.204105	2467.221105	1.121058	0.025866	2.869543
187.623821	2478.224124	1.126063	0.025784	2.875254
187.912975	2489.269563	1.131068	0.025727	2.880955
188.379099	2500.260189	1.136073	0.025637	2.886645
188.635992	2511.324459	1.141077	0.025586	2.892328
188.963590	2522.304983	1.146082	0.025522	2.897968
189.416575	2533.313750	1.151087	0.025434	2.903631
189.987158	2544.313451	1.156091	0.025324	2.909296
190.544133	2555.361048	1.161096	0.025217	2.914973
190.911482	2566.380527	1.166101	0.025145	2.920594
191.329980	2577.419685	1.171106	0.025064	2.926223
191.612582	2588.446281	1.176110	0.025008	2.931814
192.288813	2599.380454	1.181115	0.024879	2.937407
192.672121	2610.451678	1.186120	0.024804	2.943014
193.130604	2621.480348	1.191125	0.024715	2.948600
193.493415	2632.491328	1.196129	0.024645	2.954153
193.777017	2643.537470	1.201134	0.024589	2.959700
194.163572	2654.512474	1.206139	0.024513	2.965217
194.865869	2665.542296	1.211143	0.024379	2.970798
195.286222	2676.564925	1.216148	0.024297	2.976323
195.710871	2687.573097	1.221153	0.024215	2.981830
196.019479	2698.602378	1.226158	0.024154	2.987321
196.640666	2709.592125	1.231162	0.024035	2.992829
197.248237	2720.625993	1.236167	0.023918	2.998345
197.712336	2731.673844	1.241172	0.023828	3.003838
198.146264	2742.664164	1.246177	0.023744	3.009287
198.273088	2753.711096	1.251181	0.023718	3.014709
198.739502	2764.679799	1.256186	0.023628	3.020133
199.494983	2775.724255	1.261191	0.023483	3.025626
200.016288	2786.753920	1.266195	0.023382	3.031068
200.291068	2797.777513	1.271200	0.023328	3.036461
200.821523	2808.748297	1.276205	0.023226	3.041856
201.158020	2819.821728	1.281210	0.023160	3.047262
201.598076	2830.816957	1.286214	0.023075	3.052636
201.968764	2841.818420	1.291219	0.023002	3.057994
202.712158	2852.822513	1.296224	0.022860	3.063397
203.015829	2863.918754	1.301228	0.022801	3.068772
203.336447	2874.870111	1.306233	0.022738	3.074070
203.482672	2885.941551	1.311238	0.022707	3.079391
203.843883	2896.914133	1.316243	0.022637	3.084687
204.676623	2907.922458	1.321247	0.022478	3.090057
205.076319	2918.957296	1.326252	0.022400	3.095369
205.398474	2929.994420	1.331257	0.022337	3.100662
205.871194	2940.971277	1.336262	0.022246	3.105938
206.249644	2952.020260	1.341266	0.022172	3.111227
207.107969	2962.977008	1.346271	0.022008	3.116529
207.473033	2974.053995	1.351276	0.021937	3.121811
208.105601	2985.047362	1.356280	0.021816	3.127081
208.432563	2996.106862	1.361285	0.021751	3.132331
208.518470	3007.112583	1.366290	0.021733	3.137514
209.130356	3018.107126	1.371295	0.021615	3.142755
209.513806	3029.139757	1.376299	0.021540	3.147974
210.006006	3040.159848	1.381304	0.021445	3.153193
210.301725	3051.175335	1.386309	0.021387	3.158374
210.427113	3062.208167	1.391314	0.021361	3.163532
210.838294	3073.196973	1.396318	0.021281	3.168699
211.304431	3084.218357	1.401323	0.021191	3.173881
211.808749	3095.216088	1.406328	0.021093	3.179048
212.234835	3106.267903	1.411332	0.021011	3.184221
212.415415	3117.300871	1.416337	0.020974	3.189344
212.815483	3128.279702	1.421342	0.020896	3.194463
213.337662	3139.316318	1.426347	0.020796	3.199617
213.735677	3150.324486	1.431351	0.020718	3.204733
214.216611	3161.351072	1.436356	0.020625	3.209860
214.402898	3172.373598	1.441361	0.020588	3.214937
214.619575	3183.376945	1.446366	0.020544	3.220002
214.936466	3194.404372	1.451370	0.020482	3.225083
215.432531	3205.381242	1.456375	0.020386	3.230157
216.068599	3216.441732	1.461380	0.020264	3.235279
216.261024	3227.422489	1.466384	0.020225	3.240298
216.486753	3238.481736	1.471389	0.020180	3.245349
216.831752	3249.485480	1.476394	0.020113	3.250383
217.386813	3260.466171	1.481399	0.020006	3.255426
217.999781	3271.498266	1.486403	0.019888	3.260492
218.503371	3282.535263	1.491408	0.019791	3.265538
218.724779	3293.548801	1.496413	0.019747	3.270529
219.185190	3304.565018	1.501417	0.019657	3.275544
219.676230	3315.567553	1.506422	0.019563	3.280549
220.206699	3326.592126	1.511427	0.019460	3.285561
220.478984	3337.629749	1.516432	0.019406	3.290539
221.010659	3348.622146	1.521436	0.019304	3.295521
221.121752	3359.661453	1.526441	0.019280	3.300464
221.422026	3370.672601	1.531446	0.019221	3.305410
221.939031	3381.660580	1.536451	0.019122	3.310367
222.266722	3392.718704	1.541455	0.019057	3.315322
222.630144	3403.704691	1.546460	0.018986	3.320243
222.877910	3414.745822	1.551465	0.018937	3.325167
223.033054	3425.752160	1.556469	0.018905	3.330056
223.691270	3436.768755	1.561474	0.018779	3.335005
224.154996	3447.745526	1.566479	0.018689	3.339905
224.511132	3458.810444	1.571484	0.018620	3.344823
224.944075	3469.822707	1.576488	0.018536	3.349720
225.116509	3480.846789	1.581493	0.018501	3.354583
225.579559	3491.832877	1.586498	0.018411	3.359458
226.019018	3502.862715	1.591503	0.018326	3.364342
226.608382	3513.878263	1.596507	0.018213	3.369231
227.160008	3524.876635	1.601512	0.018106	3.374101
227.305032	3535.927515	1.606517	0.018077	3.378937
227.426201	3546.946521	1.611521	0.018051	3.383749
227.694207	3557.961738	1.616526	0.017998	3.388570
228.187252	3568.937092	1.621531	0.017903	3.393394
228.735533	3579.968590	1.626536	0.017797	3.398243
228.886037	3591.018541	1.631540	0.017766	3.403044
229.031742	3602.036437	1.636545	0.017736	3.407824
229.278263	3613.005642	1.641550	0.017687	3.412589
229.694472	3624.031568	1.646555	0.017606	3.417391
230.316757	3635.061060	1.651559	0.017487	3.422213
230.657652	3646.071548	1.656564	0.017420	3.426986
230.915838	3657.111223	1.661569	0.017369	3.431756
231.069867	3668.115225	1.666573	0.017337	3.436490
231.400376	3679.111184	1.671578	0.017273	3.441236
231.928689	3690.139500	1.676583	0.017171	3.446013
232.565080	3701.147141	1.681588	0.017049	3.450786
232.703299	3712.173422	1.686592	0.017020	3.455502
233.023000	3723.198566	1.691597	0.016957	3.460233
233.344587	3734.204039	1.696602	0.016894	3.464948
233.937635	3745.210382	1.701606	0.016780	3.469690
234.383360	3756.234562	1.706611	0.016694	3.474415
234.872951	3767.256947	1.711616	0.016599	3.479138
235.339831	3778.261104	1.716621	0.016509	3.483844
235.486201	3789.311527	1.721625	0.016479	3.488526
235.819996	3800.280369	1.726630	0.016413	3.493189
236.421217	3811.323789	1.731635	0.016298	3.497908
236.733489	3822.304935	1.736640	0.016237	3.502561
237.376008	3833.362533	1.741644	0.016113	3.507278
237.636765	3844.364728	1.746649	0.016062	3.511921
238.040787	3855.386686	1.751654	0.015983	3.516583
238.269591	3866.404884	1.756658	0.015937	3.521217
238.966083	3877.401076	1.761663	0.015804	3.525889
239.366070	3888.431669	1.766668	0.015726	3.530535
239.439945	3899.463708	1.771673	0.015710	3.535139
239.689615	3910.465522	1.776677	0.015660	3.539744
239.905305	3921.497869	1.781682	0.015617	3.544351
240.337718	3932.473316	1.786687	0.015533	3.548954
240.813046	3943.522675	1.791692	0.015441	3.553586
241.017273	3954.534043	1.796696	0.015400	3.558165
241.259647	3965.547983	1.801701	0.015352	3.562744
241.573057	3976.558684	1.806706	0.015290	3.567324
242.016427	3987.569293	1.811710	0.015204	3.571912
242.418168	3998.580622	1.816715	0.015126	3.576490
242.808950	4009.602535	1.821720	0.015050	3.581065
242.971323	4020.632497	1.826725	0.015017	3.585612
243.402432	4031.630457	1.831729	0.014933	3.590170
243.621084	4042.649350	1.836734	0.014890	3.594707
244.275548	4053.658171	1.841739	0.014764	3.599282
244.353884	4064.713229	1.846744	0.014747	3.603807
245.029204	4075.697136	1.851748	0.014617	3.608362
245.323882	4086.708895	1.856753	0.014559	3.612882
245.714642	4097.742885	1.861758	0.014483	3.617415
246.034494	4108.801488	1.866762	0.014420	3.621945
246.521568	4119.805146	1.871767	0.014326	3.626464
246.781294	4130.800907	1.876772	0.014275	3.630951
247.147966	4141.850017	1.881777	0.014203	3.635464
247.497749	4152.848924	1.886781	0.014135	3.639950
247.850899	4163.876289	1.891786	0.014066	3.644443
248.186141	4174.886697	1.896791	0.014000	3.648921
248.639014	4185.910869	1.901795	0.013913	3.653411
248.840357	4196.930772	1.906800	0.013872	3.657867
249.182668	4207.937241	1.911805	0.013805	3.662328
249.548787	4218.948054	1.916810	0.013734	3.666787
249.975654	4229.940259	1.921814	0.013651	3.671239
250.338788	4240.976975	1.926819	0.013580	3.675698
250.779516	4251.990649	1.931824	0.013495	3.680149
251.139579	4263.014960	1.936829	0.013424	3.684591
251.572916	4274.024310	1.941833	0.013340	3.689030
251.834642	4285.050654	1.946838	0.013288	3.693451
252.279211	4296.038739	1.951843	0.013202	3.697871
252.575756	4307.088434	1.956847	0.013144	3.702295
253.074888	4318.105864	1.961852	0.013047	3.706722
253.333267	4329.077532	1.966857	0.012996	3.711100
253.736339	4340.129616	1.971862	0.012918	3.715520
253.877752	4351.139271	1.976866	0.012889	3.719891
254.256535	4362.162027	1.981871	0.012815	3.724286
254.583794	4373.148981	1.986876	0.012751	3.728657
255.003978	4384.176540	1.991881	0.012669	3.733047
255.382776	4395.232921	1.996885	0.012595	3.737440
255.850621	4406.195441	2.001890	0.012505	3.741800
