Wed Nov 23 19:44:20 2022

Number of Points = 2200
Depth (nm)	Load (µN)	Time (s)	Depth (V)	Load (V)
-4.720315	0.662391	0.000000	0.009233	1.031504
0.000000	6.875467	0.005005	0.008345	1.042787
3.786281	16.327887	0.010009	0.007633	1.057976
6.144713	27.359181	0.015014	0.007187	1.074387
7.634497	38.682791	0.020019	0.006905	1.090512
8.666800	49.936660	0.025024	0.006709	1.106084
9.542218	61.150428	0.030028	0.006541	1.121310
10.099266	72.361582	0.035033	0.006434	1.136177
10.612136	83.497983	0.040038	0.006335	1.150736
10.996420	94.645261	0.045043	0.006260	1.165066
11.486153	105.744676	0.050047	0.006166	1.179210
12.062965	116.776339	0.055052	0.006055	1.193143
15.252385	127.403216	0.060057	0.005454	1.207586
16.824743	138.750615	0.065061	0.005156	1.222012
18.272295	149.898669	0.070066	0.004881	1.235976
19.527190	161.081502	0.075071	0.004643	1.249742
21.001282	172.127834	0.080076	0.004364	1.263291
22.254844	183.256888	0.085080	0.004126	1.276697
23.480035	194.372720	0.090085	0.003893	1.289937
24.359912	205.575399	0.095090	0.003725	1.302998
25.372161	216.620791	0.100094	0.003533	1.315806
26.475750	227.654449	0.105099	0.003323	1.328514
27.818119	238.690152	0.110104	0.003068	1.341199
28.505953	249.884082	0.115109	0.002936	1.353677
29.431392	260.945195	0.120113	0.002760	1.365991
30.380497	272.007610	0.125118	0.002579	1.378205
31.208547	283.098686	0.130123	0.002421	1.390294
32.309554	294.122082	0.135128	0.002212	1.402312
33.225782	305.235685	0.140132	0.002037	1.414251
34.067789	316.311996	0.145137	0.001876	1.426024
34.948797	327.382436	0.150142	0.001708	1.437708
35.570002	338.478987	0.155146	0.001589	1.449229
36.330623	349.548776	0.160151	0.001444	1.460682
37.081256	360.581131	0.165156	0.001300	1.472005
37.778907	371.671728	0.170161	0.001166	1.483279
38.541873	382.695546	0.175165	0.001020	1.494426
39.262783	393.807996	0.180170	0.000882	1.505561
39.856728	404.842162	0.185175	0.000768	1.516495
40.679000	415.886025	0.190180	0.000611	1.527437
41.067895	427.020313	0.195184	0.000535	1.538240
41.745797	438.038379	0.200189	0.000406	1.548955
42.060931	449.138737	0.205194	0.000344	1.559551
42.853626	460.087656	0.210198	0.000192	1.570093
43.687862	471.164734	0.215203	0.000033	1.580698
45.015047	482.004812	0.220208	-0.000219	1.591175
48.604641	492.873955	0.225213	-0.000895	1.602350
49.721837	504.247739	0.230217	-0.001108	1.613102
50.578684	515.361814	0.235222	-0.001271	1.623464
51.826854	526.333802	0.240227	-0.001508	1.633757
52.669773	537.443459	0.245232	-0.001669	1.643979
54.247606	548.375223	0.250236	-0.001968	1.654212
55.306097	559.513911	0.255241	-0.002169	1.664401
56.435273	570.548589	0.260246	-0.002384	1.674457
57.417804	581.628509	0.265250	-0.002571	1.684448
58.530290	592.648087	0.270255	-0.002782	1.694366
59.350178	603.735594	0.275260	-0.002939	1.704196
60.327193	614.754737	0.280265	-0.003125	1.713958
61.142298	625.831691	0.285269	-0.003281	1.723665
62.278375	636.811145	0.290274	-0.003496	1.733330
63.272540	647.887541	0.295279	-0.003686	1.742980
64.203742	658.958092	0.300283	-0.003863	1.752554
64.777033	670.023543	0.305288	-0.003973	1.761966
66.126724	680.959552	0.310293	-0.004229	1.771446
67.177896	692.062169	0.315298	-0.004429	1.780926
68.028532	703.108585	0.320302	-0.004592	1.790252
68.910674	714.134219	0.325307	-0.004760	1.799521
70.044141	725.163083	0.330312	-0.004975	1.808817
70.769154	736.268737	0.335317	-0.005114	1.818010
71.559944	747.287524	0.340321	-0.005265	1.827106
72.333906	758.327435	0.345326	-0.005413	1.836169
73.247311	769.337137	0.350331	-0.005587	1.845201
74.159439	780.373828	0.355335	-0.005761	1.854210
74.886123	791.469244	0.360340	-0.005900	1.863170
75.862054	802.435702	0.365345	-0.006086	1.872054
76.561435	813.537666	0.370350	-0.006220	1.880927
77.416383	824.522526	0.375354	-0.006383	1.889708
78.419088	835.567210	0.380359	-0.006574	1.898535
79.014292	846.649342	0.385364	-0.006689	1.907239
80.044085	857.638662	0.390369	-0.006885	1.915949
80.641122	868.696121	0.395373	-0.006999	1.924556
81.662599	879.694911	0.400378	-0.007194	1.933192
82.276566	890.792497	0.405383	-0.007312	1.941757
83.044632	901.793316	0.410387	-0.007459	1.950251
84.067491	912.769820	0.415392	-0.007653	1.958756
84.943252	923.858987	0.420397	-0.007820	1.967270
85.703192	934.893009	0.425402	-0.007966	1.975676
86.476061	945.926639	0.430406	-0.008113	1.984049
87.051348	956.981000	0.435411	-0.008224	1.992352
88.048875	967.968357	0.440416	-0.008414	2.000678
88.733227	979.045255	0.445421	-0.008545	2.008955
89.419259	990.053198	0.450425	-0.008677	2.017149
90.447995	1001.069972	0.455430	-0.008872	2.025400
91.109656	1012.136839	0.460435	-0.008999	2.033563
91.765780	1023.155381	0.465439	-0.009125	2.041657
92.865332	1034.160609	0.470444	-0.009334	2.049818
93.478737	1045.255463	0.475449	-0.009452	2.057891
94.464420	1056.207079	0.480454	-0.009640	2.065922
95.086688	1067.322596	0.485458	-0.009759	2.073948
95.626045	1078.352291	0.490463	-0.009863	2.081864
96.110094	1089.382281	0.495468	-0.009957	2.089736
96.702974	1100.408102	0.500472	-0.010071	2.097601
97.687996	1111.373566	0.505477	-0.010258	2.105488
98.257928	1122.462340	0.510482	-0.010368	2.113332
98.869028	1133.461325	0.515487	-0.010485	2.121095
99.989704	1144.460719	0.520491	-0.010698	2.128948
100.666539	1155.550937	0.525496	-0.010828	2.136732
101.402659	1166.536287	0.530501	-0.010969	2.144428
102.026651	1177.593596	0.535506	-0.011089	2.152121
102.624747	1188.639464	0.540510	-0.011204	2.159771
103.512327	1199.624880	0.545515	-0.011373	2.167420
104.406335	1210.639048	0.550520	-0.011543	2.175063
105.228052	1221.698009	0.555524	-0.011700	2.182692
105.552387	1232.787562	0.560529	-0.011764	2.190202
106.243677	1243.746409	0.565534	-0.011896	2.197682
106.853069	1254.789018	0.570539	-0.012013	2.205174
107.540153	1265.822435	0.575543	-0.012145	2.212651
108.170801	1276.837730	0.580548	-0.012266	2.220078
108.708605	1287.869334	0.585553	-0.012370	2.227470
109.499874	1298.901722	0.590558	-0.012521	2.234895
109.809156	1309.962695	0.595562	-0.012582	2.242207
110.411553	1320.947214	0.600567	-0.012697	2.249509
111.050863	1332.003195	0.605572	-0.012820	2.256842
111.616676	1343.012580	0.610576	-0.012929	2.264105
112.134609	1354.035833	0.615581	-0.013029	2.271344
112.688042	1365.068468	0.620586	-0.013136	2.278572
113.021808	1376.088696	0.625591	-0.013201	2.285723
114.252123	1387.039841	0.630595	-0.013435	2.292998
114.914839	1398.133660	0.635600	-0.013562	2.300220
115.436333	1409.172376	0.640605	-0.013662	2.307355
116.085570	1420.187608	0.645610	-0.013787	2.314479
116.369460	1431.232194	0.650614	-0.013843	2.321523
117.095678	1442.230373	0.655619	-0.013982	2.328609
117.497955	1453.288873	0.660624	-0.014060	2.335643
118.132814	1464.270089	0.665628	-0.014182	2.342656
118.929722	1475.294617	0.670633	-0.014334	2.349709
119.330387	1486.362941	0.675638	-0.014412	2.356686
119.932225	1497.338534	0.680643	-0.014528	2.363625
120.418370	1508.406006	0.685647	-0.014622	2.370578
120.911002	1519.403821	0.690652	-0.014717	2.377468
121.836232	1530.399836	0.695657	-0.014893	2.384425
122.299077	1541.471992	0.700661	-0.014983	2.391314
123.033605	1552.457224	0.705666	-0.015123	2.398185
123.640643	1563.510629	0.710671	-0.015240	2.405052
123.887141	1574.581211	0.715676	-0.015289	2.411838
124.367926	1585.563410	0.720680	-0.015382	2.418598
124.950861	1596.565773	0.725685	-0.015494	2.425371
125.443229	1607.596567	0.730690	-0.015589	2.432125
126.261076	1618.607510	0.735695	-0.015745	2.438911
126.681593	1629.649074	0.740699	-0.015827	2.445619
127.420470	1640.652775	0.745704	-0.015968	2.452348
128.008747	1651.699277	0.750709	-0.016081	2.459055
128.401123	1662.715725	0.755713	-0.016158	2.465687
129.071766	1673.742531	0.760718	-0.016286	2.472361
129.478652	1684.775405	0.765723	-0.016365	2.478970
130.060115	1695.764818	0.770728	-0.016477	2.485569
130.596388	1706.823412	0.775732	-0.016581	2.492182
131.027746	1717.854951	0.780737	-0.016664	2.498742
131.653226	1728.832005	0.785742	-0.016784	2.505290
132.442931	1739.852848	0.790747	-0.016935	2.511876
133.106783	1750.889278	0.795751	-0.017062	2.518431
133.643209	1761.910864	0.800756	-0.017166	2.524936
134.123151	1772.950788	0.805761	-0.017259	2.531424
134.694605	1783.955264	0.810765	-0.017369	2.537892
135.388814	1794.977721	0.815770	-0.017502	2.544376
135.823003	1806.030556	0.820775	-0.017586	2.550813
136.206351	1817.041672	0.825780	-0.017660	2.557200
136.672965	1828.070704	0.830784	-0.017751	2.563597
137.099362	1839.063662	0.835789	-0.017833	2.569950
137.594457	1850.166096	0.840794	-0.017929	2.576362
138.089986	1861.145110	0.845799	-0.018025	2.582688
138.625424	1872.122643	0.850803	-0.018128	2.589004
138.964107	1883.174776	0.855808	-0.018194	2.595312
139.548068	1894.172637	0.860813	-0.018307	2.601618
139.803533	1905.234768	0.865817	-0.018357	2.607885
140.381924	1916.198308	0.870822	-0.018468	2.614140
141.053109	1927.228214	0.875827	-0.018597	2.620433
141.562921	1938.263730	0.880832	-0.018696	2.626686
142.041158	1949.310211	0.885836	-0.018788	2.632924
142.514946	1960.310145	0.890841	-0.018880	2.639121
142.900977	1971.342521	0.895846	-0.018955	2.645305
143.522932	1982.335795	0.900850	-0.019074	2.651495
143.825017	1993.413063	0.905855	-0.019134	2.657660
144.437851	2004.358741	0.910860	-0.019251	2.663793
144.841991	2015.414302	0.915865	-0.019330	2.669935
145.383461	2026.440355	0.920869	-0.019434	2.676071
146.063171	2037.436648	0.925874	-0.019565	2.682201
146.608452	2048.451666	0.930879	-0.019670	2.688303
147.088883	2059.489952	0.935884	-0.019762	2.694393
147.509834	2070.478798	0.940888	-0.019844	2.700432
148.204026	2081.479267	0.945893	-0.019977	2.706510
148.969426	2092.528021	0.950898	-0.020124	2.712613
149.628512	2103.521386	0.955902	-0.020250	2.718653
150.404345	2114.524806	0.960907	-0.020398	2.724706
151.372442	2125.591050	0.965912	-0.020583	2.730810
151.693806	2136.622138	0.970917	-0.020646	2.736774
152.327467	2147.624721	0.975921	-0.020767	2.742761
152.668562	2158.647190	0.980926	-0.020834	2.748697
153.169331	2169.679728	0.985931	-0.020931	2.754652
153.446515	2180.713757	0.990936	-0.020985	2.760557
153.987258	2191.719440	0.995940	-0.021090	2.766479
154.567529	2202.715756	1.000945	-0.021201	2.772389
155.210483	2213.729142	1.005950	-0.021325	2.778306
155.815278	2224.759122	1.010954	-0.021441	2.784213
156.274639	2235.802073	1.015959	-0.021530	2.790089
156.628692	2246.819987	1.020964	-0.021599	2.795924
157.029838	2257.849100	1.025969	-0.021677	2.801759
157.551298	2268.839782	1.030973	-0.021777	2.807581
158.209784	2279.864180	1.035978	-0.021904	2.813431
158.720842	2290.876900	1.040983	-0.022002	2.819239
159.420375	2301.903358	1.045988	-0.022136	2.825072
160.039790	2312.905222	1.050992	-0.022255	2.830868
160.360798	2323.974884	1.055997	-0.022318	2.836638
161.097676	2334.932327	1.061002	-0.022459	2.842406
161.738178	2345.981536	1.066006	-0.022582	2.848193
162.083724	2357.014111	1.071011	-0.022650	2.853913
162.534584	2368.017887	1.076016	-0.022737	2.859624
162.898368	2379.069172	1.081021	-0.022808	2.865333
163.282507	2390.082189	1.086025	-0.022883	2.871015
163.375623	2401.102000	1.091030	-0.022903	2.876643
163.893317	2412.090007	1.096035	-0.023003	2.882311
164.405145	2423.129769	1.101039	-0.023102	2.887992
164.750856	2434.174899	1.106044	-0.023169	2.893639
165.088334	2445.154882	1.111049	-0.023235	2.899241
165.631724	2456.164768	1.116054	-0.023340	2.904879
166.213960	2467.189158	1.121058	-0.023452	2.910518
166.822590	2478.218231	1.126063	-0.023569	2.916154
167.252710	2489.236556	1.131068	-0.023652	2.921745
167.452938	2500.274118	1.136073	-0.023693	2.927301
167.764431	2511.264610	1.141077	-0.023754	2.932839
168.106115	2522.307791	1.146082	-0.023821	2.938397
168.731328	2533.290527	1.151087	-0.023941	2.943958
169.125454	2544.339736	1.156091	-0.024017	2.949506
169.588940	2555.329926	1.161096	-0.024107	2.955025
170.001594	2566.385643	1.166101	-0.024187	2.960558
170.411757	2577.387357	1.171106	-0.024267	2.966053
170.838117	2588.399342	1.176110	-0.024350	2.971546
171.363707	2599.412370	1.181115	-0.024451	2.977044
171.654425	2610.444729	1.186120	-0.024508	2.982506
172.017132	2621.465102	1.191125	-0.024579	2.987963
172.417080	2632.476296	1.196129	-0.024657	2.993411
173.061693	2643.463783	1.201134	-0.024781	2.998873
173.571969	2654.516915	1.206139	-0.024879	3.004338
174.079559	2665.527353	1.211143	-0.024977	3.009771
174.435521	2676.557459	1.216148	-0.025047	3.015182
174.699887	2687.572744	1.221153	-0.025099	3.020562
175.057116	2698.597574	1.226158	-0.025169	3.025951
175.494228	2709.587510	1.231162	-0.025253	3.031325
175.819632	2720.635371	1.236167	-0.025317	3.036701
176.284758	2731.624445	1.241172	-0.025407	3.042059
176.471934	2742.692309	1.246177	-0.025445	3.047406
176.884424	2753.674868	1.251181	-0.025525	3.052735
177.408993	2764.673042	1.256186	-0.025626	3.058077
178.097599	2775.695802	1.261191	-0.025758	3.063446
178.382658	2786.751265	1.266195	-0.025814	3.068763
178.643195	2797.752835	1.271200	-0.025866	3.074042
179.025278	2808.777606	1.276205	-0.025940	3.079339
179.610851	2819.754875	1.281210	-0.026053	3.084634
179.994625	2830.818001	1.286214	-0.026128	3.089932
180.446980	2841.811563	1.291219	-0.026215	3.095197
180.807354	2852.846894	1.296224	-0.026286	3.100460
181.064467	2863.852350	1.301228	-0.026337	3.105686
181.475533	2874.889606	1.306233	-0.026417	3.110939
181.729535	2885.878567	1.311238	-0.026467	3.116138
182.294875	2896.901032	1.316243	-0.026576	3.121388
182.851664	2907.912489	1.321247	-0.026683	3.126622
183.271685	2918.960472	1.326252	-0.026765	3.131846
183.773317	2929.944486	1.331257	-0.026861	3.137042
184.107276	2940.970953	1.336262	-0.026927	3.142227
184.661888	2951.987591	1.341266	-0.027034	3.147428
185.129539	2963.022939	1.346271	-0.027124	3.152617
185.579460	2974.009381	1.351276	-0.027211	3.157773
186.023177	2985.057912	1.356280	-0.027297	3.162948
186.220786	2996.069756	1.361285	-0.027337	3.168064
186.587421	3007.108551	1.366290	-0.027409	3.173208
186.985841	3018.065501	1.371295	-0.027486	3.178309
187.525951	3029.107242	1.376299	-0.027590	3.183460
188.119310	3040.124735	1.381304	-0.027704	3.188598
188.399313	3051.160323	1.386309	-0.027759	3.193695
188.637669	3062.176089	1.391314	-0.027807	3.198769
188.908866	3073.195971	1.396318	-0.027861	3.203841
189.418856	3084.200044	1.401323	-0.027959	3.208929
189.868632	3095.207984	1.406328	-0.028046	3.214003
190.395404	3106.221146	1.411332	-0.028148	3.219081
190.765070	3117.258395	1.416337	-0.028220	3.224142
191.364299	3128.249894	1.421342	-0.028335	3.229203
191.627680	3139.292551	1.426347	-0.028387	3.234236
192.038028	3150.302760	1.431351	-0.028467	3.239266
192.374790	3161.332974	1.436356	-0.028533	3.244287
192.778048	3172.347645	1.441361	-0.028611	3.249302
193.164722	3183.349777	1.446366	-0.028686	3.254301
193.736623	3194.355751	1.451370	-0.028796	3.259318
194.344141	3205.370456	1.456375	-0.028913	3.264336
194.851277	3216.390289	1.461380	-0.029011	3.269335
195.229210	3227.426711	1.466384	-0.029085	3.274318
195.563034	3238.437634	1.471389	-0.029150	3.279275
195.788544	3249.484549	1.476394	-0.029195	3.284228
196.300734	3260.446983	1.481399	-0.029294	3.289172
196.850391	3271.494502	1.486403	-0.029400	3.294150
197.204033	3282.509432	1.491408	-0.029469	3.299082
197.524297	3293.541518	1.496413	-0.029532	3.304010
197.844986	3304.517527	1.501417	-0.029595	3.308905
198.257713	3315.556860	1.506422	-0.029675	3.313833
198.608320	3326.566177	1.511427	-0.029743	3.318733
199.170909	3337.585310	1.516432	-0.029852	3.323655
199.827563	3348.599002	1.521436	-0.029977	3.328580
200.046521	3359.627371	1.526441	-0.030021	3.333449
200.225634	3370.649124	1.531446	-0.030058	3.338304
200.554481	3381.658439	1.536451	-0.030122	3.343164
200.842741	3392.671948	1.541455	-0.030179	3.348014
201.141318	3403.718134	1.546460	-0.030238	3.352873
201.411326	3414.703371	1.551465	-0.030291	3.357694
201.762784	3425.708348	1.556469	-0.030360	3.362527
202.384362	3436.746455	1.561474	-0.030479	3.367400
202.911612	3447.742651	1.566479	-0.030581	3.372236
203.354352	3458.742761	1.571484	-0.030667	3.377057
203.832654	3469.784453	1.576488	-0.030759	3.381893
204.194860	3480.810506	1.581493	-0.030830	3.386701
204.534552	3491.827008	1.586498	-0.030896	3.391496
204.785063	3502.840792	1.591503	-0.030946	3.396271
204.923632	3513.873187	1.596507	-0.030975	3.401035
205.348728	3524.867628	1.601512	-0.031057	3.405810
205.783973	3535.874359	1.606517	-0.031141	3.410584
206.281729	3546.889783	1.611521	-0.031238	3.415363
206.652119	3557.930163	1.616526	-0.031310	3.420131
207.011970	3568.937309	1.621531	-0.031380	3.424876
207.400509	3579.965305	1.626536	-0.031456	3.429627
207.670977	3590.966829	1.631540	-0.031509	3.434346
208.126169	3601.977498	1.636545	-0.031597	3.439085
208.576212	3612.999328	1.641550	-0.031685	3.443820
209.175084	3624.015606	1.646555	-0.031800	3.448564
209.500776	3635.022590	1.651559	-0.031863	3.453266
210.011270	3646.058275	1.656564	-0.031962	3.457995
210.195349	3657.069882	1.661569	-0.031999	3.462669
210.513957	3668.095883	1.666573	-0.032062	3.467359
210.806076	3679.091001	1.671578	-0.032119	3.472026
211.344449	3690.099785	1.676583	-0.032223	3.476721
211.922887	3701.116709	1.681588	-0.032334	3.481417
212.447237	3712.163103	1.686592	-0.032435	3.486113
212.668054	3723.151262	1.691597	-0.032480	3.490744
212.935772	3734.187699	1.696602	-0.032533	3.495394
213.254258	3745.178906	1.701606	-0.032595	3.500024
213.677866	3756.216963	1.706611	-0.032677	3.504680
213.904106	3767.242849	1.711616	-0.032722	3.509302
214.093938	3778.268615	1.716621	-0.032761	3.513914
214.631887	3789.243848	1.721625	-0.032864	3.518538
215.348679	3800.253239	1.726630	-0.033002	3.523190
215.875091	3811.293259	1.731635	-0.033103	3.527827
216.277058	3822.310305	1.736640	-0.033181	3.532435
216.728879	3833.305215	1.741644	-0.033269	3.537033
217.141154	3844.342170	1.746649	-0.033349	3.541637
217.589221	3855.344833	1.751654	-0.033436	3.546226
217.978485	3866.374215	1.756658	-0.033511	3.550813
218.260531	3877.378740	1.761663	-0.033567	3.555371
218.650527	3888.385348	1.766668	-0.033643	3.559937
218.939118	3899.443580	1.771673	-0.033700	3.564507
219.291961	3910.433474	1.776677	-0.033769	3.569049
219.717228	3921.435836	1.781682	-0.033851	3.573599
220.360127	3932.461590	1.786687	-0.033975	3.578177
220.768766	3943.476712	1.791692	-0.034054	3.582718
221.298213	3954.501489	1.796696	-0.034156	3.587271
221.425895	3965.509899	1.801701	-0.034183	3.591768
221.836222	3976.525993	1.806706	-0.034263	3.596293
222.111185	3987.539320	1.811710	-0.034317	3.600796
222.670281	3998.575028	1.816715	-0.034425	3.605333
222.970144	4009.572988	1.821720	-0.034484	3.609821
223.380936	4020.590969	1.826725	-0.034563	3.614324
223.652712	4031.595772	1.831729	-0.034617	3.618800
224.097597	4042.625860	1.836734	-0.034703	3.623300
224.477283	4053.653995	1.841739	-0.034777	3.627786
224.954652	4064.624525	1.846744	-0.034870	3.632254
225.171452	4075.682460	1.851748	-0.034913	3.636724
225.564510	4086.693701	1.856753	-0.034989	3.641188
225.868650	4097.711089	1.861758	-0.035049	3.645640
226.196321	4108.774228	1.866762	-0.035113	3.650107
226.470681	4119.771551	1.871767	-0.035168	3.654536
227.031042	4130.784727	1.876772	-0.035276	3.658997
227.376650	4141.819664	1.881777	-0.035343	3.663438
227.913919	4152.857251	1.886781	-0.035447	3.667895
228.169337	4163.837392	1.891786	-0.035497	3.672293
228.619308	4174.864094	1.896791	-0.035585	3.676726
228.973639	4185.849271	1.901795	-0.035654	3.681126
229.472916	4196.904569	1.906800	-0.035750	3.685564
229.666636	4207.898771	1.911805	-0.035789	3.689941
230.014156	4218.922980	1.916810	-0.035857	3.694340
230.239619	4229.937069	1.921814	-0.035902	3.698717
230.587794	4240.976828	1.926819	-0.035970	3.703112
230.760239	4251.968685	1.931824	-0.036005	3.707465
231.203758	4262.969952	1.936829	-0.036091	3.711844
231.434746	4274.003114	1.941833	-0.036137	3.716208
231.848298	4285.018126	1.946838	-0.036218	3.720579
232.039374	4296.056188	1.951843	-0.036256	3.724931
232.454381	4307.022440	1.956847	-0.036337	3.729273
232.634171	4318.062477	1.961852	-0.036373	3.733614
232.920918	4329.070408	1.966857	-0.036430	3.737949
233.365383	4340.103565	1.971862	-0.036516	3.742304
