Wed Nov 23 17:12:02 2022

Number of Points = 2200
Depth (nm)	Load (µN)	Time (s)	Depth (V)	Load (V)
-1.980054	1.111987	0.000000	0.043853	0.929357
0.000000	7.104829	0.005005	0.043480	0.939992
1.941293	16.072301	0.010009	0.043114	0.955097
3.855104	26.637695	0.015014	0.042752	0.972379
5.529253	37.730383	0.020019	0.042435	0.990013
6.855947	48.961163	0.025024	0.042184	1.007350
7.833809	60.212846	0.030028	0.041997	1.024237
8.694343	71.446382	0.035033	0.041833	1.040762
9.391239	82.648802	0.040038	0.041700	1.056900
9.999259	93.824517	0.045043	0.041583	1.072713
12.504678	104.537528	0.050047	0.041110	1.088617
14.507906	115.743718	0.055052	0.040731	1.104702
17.206764	126.658486	0.060057	0.040222	1.120508
20.194597	137.838052	0.065061	0.039659	1.136575
21.604888	149.234981	0.070066	0.039391	1.151950
23.322094	160.361968	0.075071	0.039066	1.166923
25.440183	171.387676	0.080076	0.038666	1.181762
26.995018	182.617610	0.085080	0.038372	1.196413
28.416561	193.781258	0.090085	0.038102	1.210745
29.939090	204.906082	0.095090	0.037814	1.224906
31.299247	215.996350	0.100094	0.037556	1.238792
32.600918	227.129355	0.105099	0.037309	1.252548
33.973173	238.222678	0.110104	0.037048	1.266138
35.236608	249.350853	0.115109	0.036809	1.279577
36.103325	260.518665	0.120113	0.036643	1.292756
37.028175	271.654825	0.125118	0.036467	1.305789
38.357309	282.613041	0.130123	0.036215	1.318658
39.656874	293.677694	0.135128	0.035968	1.331508
41.008170	304.734532	0.140132	0.035712	1.344246
42.092847	315.913492	0.145137	0.035506	1.356892
43.420371	326.899800	0.150142	0.035254	1.369307
44.626681	338.064685	0.155146	0.035025	1.381754
45.718660	349.068629	0.160151	0.034817	1.393875
46.929732	360.190647	0.165156	0.034587	1.406060
47.841626	371.304537	0.170161	0.034413	1.418018
48.753261	382.377251	0.175165	0.034239	1.429833
49.543717	393.454969	0.180170	0.034088	1.441511
51.106581	404.392804	0.185175	0.033792	1.453236
52.257128	415.527381	0.190180	0.033574	1.464914
53.351867	426.596467	0.195184	0.033366	1.476414
54.427387	437.670973	0.200189	0.033161	1.487822
55.489202	448.749166	0.205194	0.032959	1.499142
56.434031	459.776777	0.210198	0.032779	1.510287
57.651382	470.849540	0.215203	0.032548	1.521487
58.648367	481.931610	0.220208	0.032358	1.532538
59.524249	493.009804	0.225213	0.032191	1.543464
60.248485	504.091195	0.230217	0.032052	1.554265
61.167093	515.120730	0.235222	0.031877	1.565007
62.089758	526.139534	0.240227	0.031701	1.575666
63.108591	537.213801	0.245232	0.031508	1.586337
63.902599	548.279342	0.250236	0.031356	1.596854
64.686167	559.355679	0.255241	0.031206	1.607308
65.375122	570.409327	0.260246	0.031074	1.617643
66.403612	581.406393	0.265250	0.030878	1.627970
67.492500	592.437536	0.270255	0.030671	1.638282
68.213773	603.567123	0.275260	0.030533	1.648499
68.969524	614.584490	0.280265	0.030389	1.658565
69.531390	625.698518	0.285269	0.030280	1.668593
70.540136	636.606131	0.290274	0.030088	1.678520
71.634291	647.704059	0.295279	0.029880	1.688580
72.560638	658.759351	0.300283	0.029704	1.698492
73.568440	669.780816	0.305288	0.029512	1.708341
74.726163	680.787084	0.310293	0.029292	1.718166
75.829462	691.871229	0.315298	0.029082	1.727984
76.659789	702.945399	0.320302	0.028924	1.737656
77.585930	713.989208	0.325307	0.028747	1.747278
78.628474	724.974209	0.330312	0.028549	1.756831
79.534235	736.076071	0.335317	0.028376	1.766389
80.281493	747.136195	0.340321	0.028233	1.775814
81.374193	758.125904	0.345326	0.028025	1.785231
82.011130	769.226518	0.350331	0.027903	1.794558
82.891731	780.206233	0.355335	0.027735	1.803808
83.846069	791.277768	0.360340	0.027553	1.813106
84.290646	802.393617	0.365345	0.027467	1.822247
84.722966	813.399658	0.370350	0.027383	1.831250
85.873288	824.350601	0.375354	0.027165	1.840366
86.804886	835.396290	0.380359	0.026987	1.849452
88.018808	846.447137	0.385364	0.026757	1.858574
88.863140	857.478066	0.390369	0.026596	1.867535
89.812659	868.546752	0.395373	0.026415	1.876510
90.624466	879.569871	0.400378	0.026260	1.885369
91.473427	890.628966	0.405383	0.026098	1.894225
92.489891	901.607500	0.410387	0.025904	1.903021
93.570120	912.669822	0.415392	0.025699	1.911858
94.855468	923.652887	0.420397	0.025455	1.920648
95.870755	934.754447	0.425402	0.025262	1.929417
96.912342	945.755944	0.430406	0.025063	1.938076
97.773725	956.828058	0.435411	0.024899	1.946702
98.429203	967.886366	0.440416	0.024773	1.955226
99.301528	978.892317	0.445421	0.024607	1.963729
100.095554	989.943568	0.450425	0.024455	1.972209
101.195439	1000.905528	0.455430	0.024246	1.980665
102.039296	1011.991501	0.460435	0.024085	1.989110
102.776044	1023.057275	0.465439	0.023944	1.997477
103.389380	1034.124888	0.470444	0.023826	2.005780
104.095348	1045.121980	0.475449	0.023691	2.014019
105.048415	1056.112304	0.480454	0.023509	2.022282
105.773216	1067.208372	0.485458	0.023371	2.030530
106.617963	1078.181121	0.490463	0.023209	2.038685
107.188103	1089.279603	0.495468	0.023100	2.046830
108.157448	1100.247879	0.500472	0.022915	2.054948
109.026634	1111.288094	0.505477	0.022749	2.063060
109.770066	1122.321921	0.510482	0.022607	2.071104
110.909458	1133.330631	0.515487	0.022391	2.079195
111.610926	1144.407071	0.520491	0.022256	2.087197
112.139026	1155.488197	0.525496	0.022154	2.095130
112.672323	1166.462595	0.530501	0.022052	2.102959
113.119751	1177.516224	0.535506	0.021965	2.110793
113.953186	1188.510690	0.540510	0.021806	2.118649
114.807116	1199.517805	0.545515	0.021643	2.126489
115.349443	1210.633236	0.550520	0.021538	2.134301
115.926647	1221.590151	0.555524	0.021427	2.141984
116.755389	1232.624483	0.560529	0.021269	2.149750
117.454215	1243.683928	0.565534	0.021135	2.157476
117.928747	1254.726256	0.570539	0.021043	2.165110
118.743390	1265.708071	0.575543	0.020888	2.172754
119.313275	1276.773512	0.580548	0.020778	2.180372
119.910546	1287.791050	0.585553	0.020663	2.187937
120.710518	1298.789376	0.590558	0.020511	2.195508
121.571701	1309.797112	0.595562	0.020346	2.203074
122.338812	1320.873575	0.600567	0.020200	2.210638
123.086753	1331.880108	0.605572	0.020056	2.218125
123.587781	1342.947576	0.610576	0.019960	2.225572
124.245430	1353.926498	0.615581	0.019834	2.232970
124.942815	1364.984964	0.620586	0.019700	2.240404
125.607981	1375.990913	0.625591	0.019572	2.247773
126.194833	1387.073048	0.630595	0.019460	2.255149
126.771943	1398.051592	0.635600	0.019349	2.262432
127.343851	1409.081226	0.640605	0.019239	2.269723
127.638271	1420.164782	0.645610	0.019181	2.276965
128.187138	1431.131308	0.650614	0.019075	2.284164
129.081581	1442.121709	0.655619	0.018904	2.291429
129.640762	1453.196951	0.660624	0.018797	2.298654
130.213711	1464.200950	0.665628	0.018686	2.305814
130.755755	1475.250143	0.670633	0.018582	2.312973
131.332558	1486.269275	0.675638	0.018471	2.320098
132.103887	1497.263002	0.680643	0.018324	2.327226
133.014364	1508.297451	0.685647	0.018150	2.334387
133.302167	1519.381984	0.690652	0.018093	2.341427
133.819701	1530.362426	0.695657	0.017993	2.348428
134.273619	1541.403287	0.700661	0.017906	2.355433
134.881572	1552.403462	0.705666	0.017789	2.362424
135.511297	1563.434007	0.710671	0.017668	2.369417
136.182010	1574.462167	0.715676	0.017539	2.376396
136.709748	1585.482552	0.720680	0.017437	2.383320
137.284795	1596.517170	0.725685	0.017327	2.390243
137.815477	1607.537529	0.730690	0.017225	2.397127
138.375522	1618.573591	0.735695	0.017117	2.404008
138.756910	1629.611947	0.740699	0.017042	2.410834
139.338818	1640.584472	0.745704	0.016931	2.417640
139.897353	1651.636855	0.750709	0.016823	2.424471
140.502909	1662.646533	0.755713	0.016707	2.431267
141.178458	1673.654644	0.760718	0.016577	2.438055
141.977628	1684.678857	0.765723	0.016424	2.444859
142.337208	1695.754581	0.770728	0.016354	2.451589
142.665555	1706.778157	0.775732	0.016290	2.458262
143.203980	1717.747860	0.780737	0.016186	2.464926
144.209360	1728.747922	0.785742	0.015995	2.471681
144.711947	1739.841569	0.790747	0.015898	2.478375
145.087772	1750.850177	0.795751	0.015824	2.484976
145.584595	1761.868774	0.800756	0.015729	2.491589
146.054006	1772.915427	0.805761	0.015638	2.498195
146.616674	1783.898998	0.810765	0.015529	2.504765
147.060850	1794.939248	0.815770	0.015443	2.511328
147.618247	1805.962408	0.820775	0.015336	2.517885
148.165327	1816.977751	0.825780	0.015231	2.524418
148.428070	1828.026991	0.830784	0.015179	2.530900
149.133519	1838.988057	0.835789	0.015044	2.537398
149.840828	1850.027006	0.840794	0.014908	2.543924
150.564890	1861.033354	0.845799	0.014769	2.550418
150.981846	1872.123414	0.850803	0.014688	2.556886
151.204879	1883.141800	0.855808	0.014644	2.563260
151.652076	1894.133158	0.860813	0.014557	2.569645
152.265654	1905.215068	0.865817	0.014439	2.576096
152.742214	1916.168316	0.870822	0.014347	2.582432
153.279139	1927.196192	0.875827	0.014244	2.588806
153.707980	1938.233555	0.880832	0.014161	2.595149
154.332804	1949.220476	0.885836	0.014041	2.601485
154.651012	1960.278797	0.890841	0.013978	2.607789
155.087137	1971.283021	0.895846	0.013894	2.614069
155.596793	1982.308852	0.900850	0.013795	2.620359
156.032069	1993.311516	0.905855	0.013711	2.626607
156.704916	2004.353101	0.910860	0.013582	2.632905
157.235841	2015.351949	0.915865	0.013480	2.639139
157.706343	2026.393971	0.920869	0.013389	2.645370
158.172019	2037.409341	0.925874	0.013298	2.651572
158.797531	2048.426489	0.930879	0.013178	2.657788
159.148815	2059.414984	0.935884	0.013110	2.663925
159.711389	2070.450570	0.940888	0.013001	2.670111
160.060729	2081.479070	0.945893	0.012933	2.676241
160.570287	2092.495614	0.950898	0.012835	2.682379
160.925867	2103.519514	0.955902	0.012765	2.688479
161.462453	2114.512778	0.960907	0.012662	2.694581
161.974887	2125.546749	0.965912	0.012563	2.700686
162.357542	2136.590489	0.970917	0.012488	2.706761
162.854075	2147.587896	0.975921	0.012393	2.712816
163.395805	2158.623961	0.980926	0.012288	2.718886
163.767203	2169.628020	0.985931	0.012216	2.724896
164.226539	2180.665686	0.990936	0.012127	2.730926
164.780001	2191.662138	0.995940	0.012020	2.736936
165.430111	2202.660669	1.000945	0.011896	2.742950
165.929644	2213.708686	1.005950	0.011799	2.748952
166.589592	2224.718893	1.010954	0.011673	2.754948
166.846710	2235.779363	1.015959	0.011622	2.760890
167.306900	2246.785140	1.020964	0.011533	2.766823
167.893414	2257.779140	1.025969	0.011420	2.772759
168.361473	2268.810861	1.030973	0.011329	2.778682
168.724223	2279.828071	1.035978	0.011258	2.784567
169.283981	2290.850234	1.040983	0.011151	2.790475
169.751977	2301.866288	1.045988	0.011060	2.796352
170.317557	2312.903670	1.050992	0.010951	2.802243
170.873418	2323.879187	1.055997	0.010844	2.808088
171.403462	2334.944823	1.061002	0.010742	2.813964
171.768557	2345.948984	1.066006	0.010671	2.819768
172.302173	2356.971972	1.071011	0.010568	2.825598
172.832297	2367.977385	1.076016	0.010466	2.831405
173.320510	2379.028657	1.081021	0.010371	2.837218
173.737700	2390.005660	1.086025	0.010290	2.842969
174.159839	2401.063738	1.091030	0.010208	2.848750
174.577742	2412.072170	1.096035	0.010127	2.854494
174.925107	2423.085573	1.101039	0.010059	2.860217
175.347989	2434.102435	1.106044	0.009977	2.865943
175.599990	2445.160323	1.111049	0.009927	2.871650
176.078838	2456.123068	1.116054	0.009835	2.877334
176.434203	2467.180910	1.121058	0.009765	2.883036
176.966557	2478.170522	1.126063	0.009663	2.888718
177.479655	2489.228263	1.131068	0.009564	2.894422
177.718533	2500.221928	1.136073	0.009516	2.900039
178.269420	2511.224298	1.141077	0.009410	2.905697
178.544534	2522.285554	1.146082	0.009356	2.911332
178.833411	2533.279508	1.151087	0.009299	2.916924
179.359894	2544.285621	1.156091	0.009197	2.922547
179.860258	2555.310329	1.161096	0.009101	2.928165
180.326389	2566.315527	1.166101	0.009010	2.933757
180.842594	2577.338249	1.171106	0.008911	2.939355
181.549839	2588.336960	1.176110	0.008775	2.944959
182.072756	2599.408467	1.181115	0.008675	2.950561
182.470586	2610.400886	1.186120	0.008597	2.956093
182.830653	2621.437136	1.191125	0.008527	2.961631
183.313505	2632.432034	1.196129	0.008434	2.967157
183.527474	2643.490280	1.201134	0.008391	2.972663
183.906072	2654.466339	1.206139	0.008317	2.978143
184.287697	2665.505215	1.211143	0.008243	2.983645
184.531345	2676.526594	1.216148	0.008194	2.989106
184.884284	2687.544335	1.221153	0.008125	2.994573
185.369848	2698.554733	1.226158	0.008031	3.000045
185.873076	2709.566422	1.231162	0.007934	3.005510
186.294263	2720.602307	1.236167	0.007852	3.010966
186.986484	2731.569520	1.241172	0.007720	3.016417
187.406647	2742.623011	1.246177	0.007638	3.021860
187.862812	2753.645599	1.251181	0.007550	3.027284
188.096766	2764.679074	1.256186	0.007503	3.032671
188.682331	2775.655522	1.261191	0.007391	3.038072
189.166059	2786.700720	1.266195	0.007297	3.043481
189.314698	2797.758130	1.271200	0.007267	3.048839
189.594575	2808.723963	1.276205	0.007211	3.054162
190.056217	2819.755077	1.281210	0.007122	3.059532
190.296739	2830.771745	1.286214	0.007074	3.064855
191.022888	2841.782556	1.291219	0.006935	3.070235
191.574934	2852.787537	1.296224	0.006829	3.075578
192.066877	2863.844518	1.301228	0.006734	3.080927
192.396598	2874.825208	1.306233	0.006669	3.086208
192.853559	2885.864806	1.311238	0.006581	3.091526
193.307871	2896.852997	1.316243	0.006493	3.096809
193.687154	2907.895838	1.321247	0.006419	3.102099
194.106335	2918.934920	1.326252	0.006337	3.107384
194.367735	2929.942020	1.331257	0.006286	3.112622
194.519834	2940.973722	1.336262	0.006254	3.117848
195.151016	2951.936535	1.341266	0.006133	3.123099
195.538861	2962.994827	1.346271	0.006058	3.128353
195.922851	2974.000040	1.351276	0.005983	3.133572
196.341493	2985.019154	1.356280	0.005902	3.138793
196.631454	2996.038771	1.361285	0.005845	3.143989
197.363708	3007.016009	1.366290	0.005704	3.149216
197.907717	3018.083549	1.371295	0.005600	3.154451
198.377174	3029.075101	1.376299	0.005509	3.159632
198.839411	3040.103439	1.381304	0.005419	3.164820
199.316439	3051.127856	1.386309	0.005327	3.170000
199.584298	3062.141517	1.391314	0.005274	3.175138
199.926833	3073.180561	1.396318	0.005207	3.180289
200.040689	3084.192194	1.401323	0.005183	3.185388
200.690962	3095.175848	1.406328	0.005058	3.190539
201.065037	3106.212806	1.411332	0.004985	3.195668
201.240386	3117.227732	1.416337	0.004950	3.200753
201.482310	3128.264863	1.421342	0.004902	3.205848
201.954086	3139.253122	1.426347	0.004810	3.210944
202.242595	3150.294677	1.431351	0.004754	3.216031
202.505406	3161.286862	1.436356	0.004701	3.221084
202.836722	3172.322002	1.441361	0.004637	3.226158
203.324084	3183.321525	1.446366	0.004542	3.231228
203.680587	3194.359415	1.451370	0.004473	3.236290
204.074406	3205.338768	1.456375	0.004396	3.241323
204.629753	3216.398030	1.461380	0.004289	3.246405
204.792804	3227.394678	1.466384	0.004256	3.251400
205.310257	3238.422037	1.471389	0.004156	3.256446
205.452001	3249.437063	1.476394	0.004127	3.261431
205.921932	3260.434583	1.481399	0.004036	3.266442
206.360391	3271.462664	1.486403	0.003951	3.271456
206.733608	3282.480151	1.491408	0.003878	3.276448
207.177495	3293.491112	1.496413	0.003792	3.281439
207.534865	3304.529353	1.501417	0.003722	3.286423
207.956272	3315.514669	1.506422	0.003640	3.291384
208.477855	3326.564755	1.511427	0.003540	3.296380
208.942075	3337.540443	1.516432	0.003450	3.301327
209.186664	3348.594894	1.521436	0.003401	3.306274
209.663524	3359.596559	1.526441	0.003309	3.311219
210.127551	3370.627957	1.531446	0.003219	3.316168
210.398935	3381.622302	1.536451	0.003166	3.321069
210.728883	3392.656837	1.541455	0.003101	3.325988
211.175597	3403.657967	1.546460	0.003015	3.330900
211.597768	3414.689815	1.551465	0.002933	3.335815
212.014804	3425.689396	1.556469	0.002852	3.340707
212.487215	3436.733245	1.561474	0.002760	3.345619
212.804250	3447.718011	1.566479	0.002698	3.350478
213.073509	3458.763167	1.571484	0.002645	3.355350
213.261877	3469.784583	1.576488	0.002607	3.360195
213.648090	3480.785025	1.581493	0.002532	3.365048
214.006154	3491.812503	1.586498	0.002462	3.369903
214.274030	3502.809832	1.591503	0.002409	3.374726
214.612339	3513.832850	1.596507	0.002342	3.379562
215.083667	3524.849821	1.601512	0.002251	3.384405
215.419899	3535.873306	1.606517	0.002185	3.389226
215.936858	3546.861557	1.611521	0.002086	3.394048
216.479861	3557.885390	1.616526	0.001981	3.398881
216.738767	3568.928766	1.621531	0.001930	3.403682
217.143801	3579.932031	1.626536	0.001851	3.408475
217.396375	3590.939228	1.631540	0.001801	3.413246
217.660215	3601.983636	1.636545	0.001749	3.418027
217.993138	3612.972908	1.641550	0.001684	3.422786
218.429462	3623.991339	1.646555	0.001599	3.427563
218.937589	3635.004188	1.651559	0.001501	3.432339
219.256109	3646.028417	1.656564	0.001438	3.437091
219.646606	3657.041700	1.661569	0.001362	3.441840
219.805934	3668.081745	1.666573	0.001330	3.446567
220.300797	3679.066419	1.671578	0.001234	3.451303
220.802866	3690.061726	1.676583	0.001137	3.456038
221.417767	3701.101075	1.681588	0.001019	3.460798
221.795171	3712.117741	1.686592	0.000946	3.465514
222.133985	3723.154488	1.691597	0.000879	3.470228
222.378861	3734.163681	1.696602	0.000831	3.474912
222.816745	3745.177137	1.701606	0.000746	3.479615
223.103302	3756.203707	1.706611	0.000689	3.484299
223.723822	3767.188749	1.711616	0.000570	3.488997
223.868916	3778.230919	1.716621	0.000540	3.493659
224.194858	3789.252661	1.721625	0.000476	3.498326
224.624905	3800.231208	1.726630	0.000393	3.502981
225.123570	3811.282101	1.731635	0.000296	3.507668
225.313339	3822.278613	1.736640	0.000258	3.512290
225.718341	3833.311191	1.741644	0.000179	3.516946
225.998133	3844.311965	1.746649	0.000124	3.521568
226.293229	3855.355530	1.751654	0.000066	3.526204
226.677219	3866.350742	1.756658	-0.000009	3.530823
227.064662	3877.371799	1.761663	-0.000084	3.535447
227.174404	3888.369217	1.766668	-0.000107	3.540024
227.657133	3899.399873	1.771673	-0.000201	3.544651
228.000894	3910.413528	1.776677	-0.000268	3.549249
228.331409	3921.434781	1.781682	-0.000333	3.553843
228.633855	3932.450179	1.786687	-0.000392	3.558425
228.982287	3943.491905	1.791692	-0.000460	3.563017
229.128791	3954.485736	1.796696	-0.000490	3.567561
229.506583	3965.478618	1.801701	-0.000564	3.572125
229.771109	3976.503400	1.806706	-0.000616	3.576683
230.326470	3987.526132	1.811710	-0.000723	3.581266
230.548164	3998.556860	1.816715	-0.000768	3.585811
230.865658	4009.552468	1.821720	-0.000830	3.590345
231.215943	4020.564962	1.826725	-0.000898	3.594884
231.580430	4031.593257	1.831729	-0.000970	3.599425
232.098360	4042.591793	1.836734	-0.001070	3.603965
232.444336	4053.638239	1.841739	-0.001137	3.608500
232.667846	4064.627796	1.846744	-0.001182	3.612993
233.128902	4075.684191	1.851748	-0.001271	3.617533
233.233853	4086.655445	1.856753	-0.001293	3.621995
233.658057	4097.729845	1.861758	-0.001376	3.626526
233.917008	4108.733364	1.866762	-0.001427	3.631006
234.423141	4119.771808	1.871767	-0.001525	3.635521
234.534294	4130.771050	1.876772	-0.001548	3.639972
234.631041	4141.814790	1.881777	-0.001569	3.644434
235.110447	4152.802918	1.886781	-0.001662	3.648909
235.598120	4163.818322	1.891786	-0.001756	3.653390
235.862220	4174.851371	1.896791	-0.001809	3.657849
236.186540	4185.863577	1.901795	-0.001872	3.662300
236.741087	4196.852329	1.906800	-0.001979	3.666761
236.940409	4207.893607	1.911805	-0.002019	3.671199
237.128275	4218.903751	1.916810	-0.002057	3.675619
237.545623	4229.903954	1.921814	-0.002138	3.680054
238.016952	4240.935007	1.926819	-0.002229	3.684501
238.462736	4251.953537	1.931824	-0.002316	3.688935
238.717234	4262.961071	1.936829	-0.002366	3.693339
239.016844	4273.992216	1.941833	-0.002425	3.697752
239.369219	4284.994706	1.946838	-0.002494	3.702154
239.745651	4296.009068	1.951843	-0.002567	3.706557
239.993082	4307.024638	1.956847	-0.002616	3.710943
240.128173	4318.060521	1.961852	-0.002644	3.715319
240.418135	4329.042444	1.966857	-0.002702	3.719685
240.829871	4340.079615	1.971862	-0.002782	3.724081
241.226687	4351.065061	1.976866	-0.002859	3.728449
241.377476	4362.140879	1.981871	-0.002890	3.732822
241.728243	4373.112169	1.986876	-0.002958	3.737169
242.107887	4384.130469	1.991881	-0.003032	3.741533
242.293061	4395.164303	1.996885	-0.003070	3.745878
242.645825	4406.161565	2.001890	-0.003139	3.750220
