Wed Nov 23 17:31:11 2022

Number of Points = 2200
Depth (nm)	Load (µN)	Time (s)	Depth (V)	Load (V)
-1.175008	0.832992	0.000000	0.053568	0.897754
0.000000	7.033347	0.005005	0.053346	0.908625
1.182152	15.977058	0.010009	0.053122	0.923775
2.212959	26.547207	0.015014	0.052926	0.941150
3.265293	37.530112	0.020019	0.052726	0.958859
4.302181	48.713345	0.025024	0.052529	0.976541
5.105587	59.936165	0.030028	0.052375	0.993837
5.960033	71.113799	0.035033	0.052212	1.010798
6.366327	82.379276	0.040038	0.052133	1.027366
7.116224	93.488365	0.045043	0.051990	1.043630
7.720785	104.685396	0.050047	0.051874	1.059690
8.499841	115.782993	0.055052	0.051725	1.075463
8.995328	126.991743	0.060057	0.051629	1.091016
9.488148	138.152313	0.065061	0.051534	1.106284
10.010811	149.256099	0.070066	0.051433	1.121283
10.630185	160.377972	0.075071	0.051314	1.136154
10.990972	171.534049	0.080076	0.051243	1.150754
11.619595	182.621133	0.085080	0.051123	1.165208
12.045665	193.773560	0.090085	0.051040	1.179473
12.600937	204.850828	0.095090	0.050933	1.193533
16.363666	214.812535	0.100094	0.050225	1.207503
30.561333	224.560931	0.105099	0.047558	1.225669
31.262111	237.688188	0.110104	0.047423	1.241704
32.140205	249.149654	0.115109	0.047256	1.255651
32.920787	260.312011	0.120113	0.047107	1.269054
33.962913	271.406733	0.125118	0.046908	1.282349
34.682084	282.513719	0.130123	0.046771	1.295387
35.707119	293.656134	0.135128	0.046575	1.308459
36.459989	304.699919	0.140132	0.046431	1.321181
37.215073	315.779093	0.145137	0.046287	1.333821
38.105590	326.829701	0.150142	0.046117	1.346365
39.183474	337.875970	0.155146	0.045912	1.358861
40.451718	348.896595	0.160151	0.045671	1.371290
41.908413	359.979164	0.165156	0.045395	1.383745
43.025418	371.088313	0.170161	0.045183	1.395986
44.032804	382.208158	0.175165	0.044991	1.408090
44.468863	393.356276	0.180170	0.044907	1.419904
45.539951	404.331917	0.185175	0.044703	1.431680
46.088081	415.502612	0.190180	0.044597	1.443365
47.589238	426.362774	0.195184	0.044313	1.454990
48.419201	437.575593	0.200189	0.044155	1.466633
49.537821	448.564093	0.205194	0.043942	1.478063
50.284587	459.702068	0.210198	0.043799	1.489421
51.377459	470.718303	0.215203	0.043591	1.500696
52.156431	481.820617	0.220208	0.043442	1.511859
53.492501	492.782562	0.225213	0.043189	1.522998
54.362278	503.926747	0.230217	0.043023	1.534070
55.157534	514.981629	0.235222	0.042871	1.544951
56.082249	526.042795	0.240227	0.042695	1.555805
56.933992	537.082247	0.245232	0.042532	1.566539
58.042425	548.107210	0.250236	0.042321	1.577271
59.062205	559.173015	0.255241	0.042127	1.587939
59.817050	570.276095	0.260246	0.041983	1.598482
60.337740	581.357843	0.265250	0.041883	1.608859
61.055278	592.402748	0.270255	0.041745	1.619201
62.045550	603.371297	0.275260	0.041557	1.629494
62.926855	614.467428	0.280265	0.041389	1.639803
63.581092	625.529661	0.285269	0.041263	1.649944
64.378063	636.566442	0.290274	0.041111	1.660046
65.081224	647.630893	0.295279	0.040976	1.670081
66.054267	658.613660	0.300283	0.040791	1.680068
67.100289	669.691008	0.305288	0.040592	1.690100
67.843733	680.765868	0.310293	0.040449	1.699978
68.468446	691.821837	0.315298	0.040330	1.709746
69.352640	702.817016	0.320302	0.040161	1.719484
70.088918	713.903984	0.325307	0.040020	1.729201
70.872279	724.920683	0.330312	0.039870	1.738818
71.412656	736.026683	0.335317	0.039766	1.748384
71.987883	747.043309	0.340321	0.039655	1.757834
72.593179	758.086424	0.345326	0.039539	1.767263
73.539589	769.078132	0.350331	0.039359	1.776699
74.515759	780.084922	0.355335	0.039173	1.786106
75.243560	791.203045	0.360340	0.039034	1.795483
76.142860	802.187742	0.365345	0.038862	1.804752
76.806893	813.302941	0.370350	0.038735	1.814011
77.469143	824.292354	0.375354	0.038608	1.823121
78.303547	835.330573	0.380359	0.038449	1.832273
79.251079	846.368319	0.385364	0.038268	1.841410
79.912928	857.435294	0.390369	0.038141	1.850446
80.776939	868.456459	0.395373	0.037976	1.859457
81.397635	879.493598	0.400378	0.037857	1.868369
82.355768	890.505925	0.405383	0.037675	1.877313
82.722161	901.629427	0.410387	0.037603	1.886138
83.259412	912.661250	0.415392	0.037499	1.894898
83.860511	923.634977	0.420397	0.037384	1.903589
84.467760	934.705616	0.425402	0.037267	1.912317
85.079015	945.735201	0.430406	0.037150	1.920975
85.813917	956.722803	0.435411	0.037009	1.929594
86.454440	967.825056	0.440416	0.036886	1.938236
87.174163	978.809187	0.445421	0.036749	1.946772
88.164538	989.798401	0.450425	0.036560	1.955344
88.810372	1000.914389	0.455430	0.036436	1.963884
89.295131	1011.939129	0.460435	0.036342	1.972277
90.095222	1022.965195	0.465439	0.036190	1.980717
90.785629	1033.972431	0.470444	0.036057	1.989078
91.439019	1045.056685	0.475449	0.035932	1.997451
91.963441	1056.097478	0.480454	0.035831	2.005725
92.549103	1067.116373	0.485458	0.035718	2.013964
93.088404	1078.151133	0.490463	0.035614	2.022168
93.929867	1089.139365	0.495468	0.035454	2.030381
94.436223	1100.208864	0.500472	0.035356	2.038537
95.738413	1111.135770	0.505477	0.035109	2.046753
96.209189	1122.295510	0.510482	0.035018	2.054899
97.093440	1133.256947	0.515487	0.034849	2.062971
97.454123	1144.353953	0.520491	0.034779	2.070981
98.291129	1155.341230	0.525496	0.034619	2.078998
99.075063	1166.327534	0.530501	0.034469	2.086970
100.027575	1177.423276	0.535506	0.034288	2.095028
100.681306	1188.416082	0.540510	0.034162	2.102912
101.686664	1199.418884	0.545515	0.033971	2.110857
102.137934	1210.545007	0.550520	0.033883	2.118726
102.890643	1221.523056	0.555524	0.033739	2.126535
103.358150	1232.569364	0.560529	0.033649	2.134294
103.966653	1243.596629	0.565534	0.033532	2.142045
104.478322	1254.638694	0.570539	0.033433	2.149756
105.111903	1265.662897	0.575543	0.033312	2.157455
105.548402	1276.694074	0.580548	0.033227	2.165085
106.056390	1287.728130	0.585553	0.033129	2.172707
106.635262	1298.730590	0.590558	0.033018	2.180297
107.242982	1309.769635	0.595562	0.032901	2.187892
107.827862	1320.780108	0.600567	0.032788	2.195435
108.473956	1331.817240	0.605572	0.032664	2.202985
108.826624	1342.890309	0.610576	0.032596	2.210466
109.564351	1353.844841	0.615581	0.032454	2.217929
110.221234	1364.881962	0.620586	0.032328	2.225404
110.986273	1375.903964	0.625591	0.032182	2.232867
111.700758	1386.967173	0.630595	0.032045	2.240322
112.318617	1397.947232	0.635600	0.031927	2.247675
112.770603	1409.063143	0.640605	0.031839	2.255057
113.500827	1419.999709	0.645610	0.031699	2.262358
114.086008	1431.068249	0.650614	0.031587	2.269690
114.725394	1442.076156	0.655619	0.031464	2.276970
115.095301	1453.137434	0.660624	0.031392	2.284203
115.677805	1464.135512	0.665628	0.031280	2.291418
116.255790	1475.160762	0.670633	0.031169	2.298627
116.751336	1486.206116	0.675638	0.031073	2.305809
117.319405	1497.199896	0.680643	0.030964	2.312950
118.009000	1508.231610	0.685647	0.030832	2.320119
118.456648	1519.285671	0.690652	0.030745	2.327229
118.978649	1530.309786	0.695657	0.030644	2.334314
119.214314	1541.344584	0.700661	0.030597	2.341324
119.914685	1552.317121	0.705666	0.030463	2.348371
120.444423	1563.378293	0.710671	0.030361	2.355416
120.932857	1574.395332	0.715676	0.030267	2.362404
121.681709	1585.390970	0.720680	0.030123	2.369412
122.468651	1596.412535	0.725685	0.029973	2.376422
123.025398	1607.465194	0.730690	0.029866	2.383384
123.526353	1618.500122	0.735695	0.029769	2.390303
123.931508	1629.514887	0.740699	0.029690	2.397171
124.564164	1640.540376	0.745704	0.029569	2.404070
125.022302	1651.555141	0.750709	0.029480	2.410909
125.842264	1662.574542	0.755713	0.029324	2.417803
126.269496	1673.594995	0.760718	0.029241	2.424599
126.694085	1684.668490	0.765723	0.029158	2.431408
127.078691	1695.652299	0.770728	0.029083	2.438136
127.518677	1706.690817	0.775732	0.028998	2.444889
128.048647	1717.713929	0.780737	0.028896	2.451631
128.603014	1728.718818	0.785742	0.028789	2.458349
128.827218	1739.780864	0.790747	0.028744	2.465018
129.270528	1750.773130	0.795751	0.028658	2.471670
129.735819	1761.804503	0.800756	0.028568	2.478331
130.583348	1772.776102	0.805761	0.028407	2.485013
131.120661	1783.860001	0.810765	0.028303	2.491684
131.676213	1794.872695	0.815770	0.028196	2.498297
132.135343	1805.854433	0.820775	0.028107	2.504857
132.651251	1816.924835	0.825780	0.028008	2.511462
133.036511	1827.945419	0.830784	0.027933	2.517995
133.707610	1838.926815	0.835789	0.027804	2.524543
133.971528	1850.015478	0.840794	0.027752	2.531059
134.743467	1860.960846	0.845799	0.027604	2.537571
135.026784	1872.046056	0.850803	0.027548	2.544055
135.875374	1882.992405	0.855808	0.027386	2.550548
136.338943	1894.077813	0.860813	0.027297	2.557033
137.011777	1905.074289	0.865817	0.027168	2.563489
137.566340	1916.107341	0.870822	0.027061	2.569927
138.091866	1927.198385	0.875827	0.026960	2.576378
138.353903	1938.166404	0.880832	0.026908	2.582693
139.215203	1949.134615	0.885836	0.026743	2.589102
139.741617	1960.183228	0.890841	0.026642	2.595480
140.316004	1971.225892	0.895846	0.026531	2.601848
140.548178	1982.266613	0.900850	0.026485	2.608136
140.857512	1993.267500	0.905855	0.026424	2.614401
141.268556	2004.281801	0.910860	0.026344	2.620677
142.007591	2015.259645	0.915865	0.026203	2.626976
142.932527	2026.301121	0.920869	0.026027	2.633328
143.328807	2037.343262	0.925874	0.025950	2.639571
143.728147	2048.371592	0.930879	0.025872	2.645792
144.064316	2059.388115	0.935884	0.025806	2.651981
144.512243	2070.378635	0.940888	0.025719	2.658160
145.101417	2081.385399	0.945893	0.025606	2.664359
145.465462	2092.445990	0.950898	0.025535	2.670534
145.971709	2103.439883	0.955902	0.025437	2.676682
146.508920	2114.472636	0.960907	0.025334	2.682842
146.947505	2125.489224	0.965912	0.025249	2.688963
147.777087	2136.458505	0.970917	0.025090	2.695111
148.474866	2147.504201	0.975921	0.024957	2.701264
149.126968	2158.529627	0.980926	0.024832	2.707384
149.675377	2169.576799	0.985931	0.024726	2.713483
149.877921	2180.603081	0.990936	0.024685	2.719499
150.600155	2191.595913	0.995940	0.024547	2.725571
150.867797	2202.669957	1.000945	0.024494	2.731597
151.201588	2213.666198	1.005950	0.024429	2.737578
151.510574	2224.684833	1.010954	0.024368	2.743554
151.879642	2235.672314	1.015959	0.024296	2.749511
152.402721	2246.726850	1.020964	0.024195	2.755516
152.838848	2257.734536	1.025969	0.024111	2.761468
153.411330	2268.733198	1.030973	0.024000	2.767426
154.107195	2279.761159	1.035978	0.023867	2.773406
154.332886	2290.809443	1.040983	0.023822	2.779307
154.566674	2301.838828	1.045988	0.023775	2.785186
155.035623	2312.806591	1.050992	0.023685	2.791058
155.766385	2323.838501	1.055997	0.023545	2.796996
156.247576	2334.867970	1.061002	0.023452	2.802878
156.563087	2345.916225	1.066006	0.023390	2.808730
156.870708	2356.925356	1.071011	0.023330	2.814549
157.309220	2367.918179	1.076016	0.023245	2.820368
157.760606	2378.937436	1.081021	0.023157	2.826191
158.416736	2389.963894	1.086025	0.023031	2.832038
158.924403	2400.985366	1.091030	0.022933	2.837847
159.231505	2412.023418	1.096035	0.022873	2.843620
159.390131	2423.045652	1.101039	0.022840	2.849350
159.833972	2434.039053	1.106044	0.022754	2.855098
160.514535	2445.039673	1.111049	0.022624	2.860876
161.256471	2456.074807	1.116054	0.022482	2.866670
161.697475	2467.100471	1.121058	0.022397	2.872400
162.061730	2478.130214	1.126063	0.022325	2.878108
162.667439	2489.107419	1.131068	0.022209	2.883815
163.186347	2500.179698	1.136073	0.022109	2.889546
163.684126	2511.188401	1.141077	0.022013	2.895230
164.144376	2522.197635	1.146082	0.021924	2.900897
164.469292	2533.211267	1.151087	0.021860	2.906535
164.903902	2544.255676	1.156091	0.021776	2.912193
165.098209	2555.258892	1.161096	0.021737	2.917783
165.565456	2566.275636	1.166101	0.021646	2.923410
166.098870	2577.279675	1.171106	0.021543	2.929031
166.789342	2588.296763	1.176110	0.021411	2.934671
167.063678	2599.341740	1.181115	0.021357	2.940251
167.512402	2610.338692	1.186120	0.021270	2.945822
167.843654	2621.377698	1.191125	0.021205	2.951386
168.386383	2632.375539	1.196129	0.021101	2.956951
168.752555	2643.391175	1.201134	0.021029	2.962488
169.215500	2654.426802	1.206139	0.020939	2.968039
169.458770	2665.461304	1.211143	0.020891	2.973545
169.907063	2676.460156	1.216148	0.020804	2.979055
170.265523	2687.468455	1.221153	0.020734	2.984545
170.844430	2698.493577	1.226158	0.020623	2.990066
170.952670	2709.547826	1.231162	0.020600	2.995522
171.304189	2720.536255	1.236167	0.020531	3.000971
171.590385	2731.567287	1.241172	0.020475	3.006421
172.213094	2742.555669	1.246177	0.020355	3.011890
172.537090	2753.586756	1.251181	0.020292	3.017326
173.177739	2764.574359	1.256186	0.020169	3.022778
173.383768	2775.648137	1.261191	0.020127	3.028197
173.930855	2786.642919	1.266195	0.020022	3.033619
174.149659	2797.669999	1.271200	0.019978	3.038998
174.792558	2808.655753	1.276205	0.019855	3.044410
175.308311	2819.715958	1.281210	0.019755	3.049829
175.647815	2830.707200	1.286214	0.019689	3.055180
175.807144	2841.767974	1.291219	0.019656	3.060529
176.359633	2852.708280	1.296224	0.019550	3.065867
176.891253	2863.781927	1.301228	0.019447	3.071256
177.337325	2874.749727	1.306233	0.019361	3.076573
177.749604	2885.813039	1.311238	0.019281	3.081922
178.255937	2896.810475	1.316243	0.019183	3.087243
178.478162	2907.860609	1.321247	0.019139	3.092540
178.934424	2918.833604	1.326252	0.019050	3.097824
179.320884	2929.889936	1.331257	0.018975	3.103128
179.813547	2940.889356	1.336262	0.018880	3.108412
179.949102	2951.935032	1.341266	0.018852	3.113658
180.284496	2962.918633	1.346271	0.018786	3.118894
180.657122	2973.943190	1.351276	0.018713	3.124145
181.093065	2984.987277	1.356280	0.018629	3.129406
181.313099	2995.987707	1.361285	0.018585	3.134607
181.818579	3006.996562	1.366290	0.018487	3.139843
182.063436	3018.015576	1.371295	0.018439	3.145039
182.593954	3029.017283	1.376299	0.018336	3.150257
182.985186	3040.063271	1.381304	0.018260	3.155469
183.432327	3051.078034	1.386309	0.018174	3.160664
183.964940	3062.068239	1.391314	0.018071	3.165852
184.244493	3073.109368	1.396318	0.018016	3.171019
184.405481	3084.115215	1.401323	0.017983	3.176146
184.860765	3095.144846	1.406328	0.017895	3.181316
185.155271	3106.163430	1.411332	0.017837	3.186450
185.804171	3117.153001	1.416337	0.017712	3.191610
186.066849	3128.216526	1.421342	0.017660	3.196744
186.367708	3139.202801	1.426347	0.017601	3.201839
186.585664	3150.251383	1.431351	0.017557	3.206943
186.877361	3161.256197	1.436356	0.017500	3.212029
187.313550	3172.231395	1.441361	0.017415	3.217113
187.930345	3183.254774	1.446366	0.017297	3.222234
188.292165	3194.301677	1.451370	0.017226	3.227324
188.745105	3205.305767	1.456375	0.017139	3.232399
189.126307	3216.342159	1.461380	0.017064	3.237471
189.547952	3227.331621	1.466384	0.016982	3.242518
189.964102	3238.358134	1.471389	0.016902	3.247574
190.546224	3249.359974	1.476394	0.016790	3.252632
190.893198	3260.384314	1.481399	0.016722	3.257662
191.437074	3271.409589	1.486403	0.016617	3.262710
191.798075	3282.441933	1.491408	0.016547	3.267730
192.366375	3293.418253	1.496413	0.016437	3.272743
192.656015	3304.480024	1.501417	0.016380	3.277751
193.217207	3315.479169	1.506422	0.016272	3.282758
193.522479	3326.509594	1.511427	0.016212	3.287739
193.824886	3337.519456	1.516432	0.016153	3.292702
194.023379	3348.542321	1.521436	0.016113	3.297650
194.560245	3359.520476	1.526441	0.016009	3.302614
194.930002	3370.567506	1.531446	0.015937	3.307580
195.265571	3381.575886	1.536451	0.015871	3.312517
195.646322	3392.604365	1.541455	0.015797	3.317461
196.470953	3403.577162	1.546460	0.015640	3.322429
197.053211	3414.629631	1.551465	0.015528	3.327394
197.633730	3425.634642	1.556469	0.015416	3.332330
197.945982	3436.690747	1.561474	0.015355	3.337248
198.404665	3447.666737	1.566479	0.015266	3.342141
198.750403	3458.691189	1.571484	0.015198	3.347034
199.204472	3469.705797	1.576488	0.015111	3.351930
199.562478	3480.747671	1.581493	0.015041	3.356818
200.086160	3491.729353	1.586498	0.014940	3.361693
200.323240	3502.800311	1.591503	0.014892	3.366564
200.775618	3513.771915	1.596507	0.014805	3.371412
200.839500	3524.806569	1.601512	0.014790	3.376232
201.503934	3535.776036	1.606517	0.014663	3.381091
201.952121	3546.844829	1.611521	0.014576	3.385959
202.530010	3557.823877	1.616526	0.014465	3.390797
202.878723	3568.879687	1.621531	0.014397	3.395633
203.017158	3579.866067	1.626536	0.014368	3.400407
203.450757	3590.907715	1.631540	0.014284	3.405234
203.952078	3601.901696	1.636545	0.014187	3.410041
204.383654	3612.930388	1.641550	0.014103	3.414848
205.009269	3623.933358	1.646555	0.013983	3.419660
205.146560	3634.978504	1.651559	0.013955	3.424425
205.529499	3645.984750	1.656564	0.013880	3.429196
205.748386	3657.022345	1.661569	0.013836	3.433954
206.066923	3667.998943	1.666573	0.013774	3.438692
206.369857	3679.042800	1.671578	0.013714	3.443449
206.988466	3690.030979	1.676583	0.013595	3.448214
207.362511	3701.054182	1.681588	0.013522	3.452958
207.817865	3712.079991	1.686592	0.013434	3.457706
208.110463	3723.091333	1.691597	0.013377	3.462422
208.441592	3734.110293	1.696602	0.013312	3.467139
208.774461	3745.115361	1.701606	0.013247	3.471844
209.327154	3756.127611	1.706611	0.013140	3.476572
209.976282	3767.141444	1.711616	0.013016	3.481304
210.466989	3778.184759	1.716621	0.012921	3.486024
210.983516	3789.146046	1.721625	0.012821	3.490707
211.353926	3800.219671	1.726630	0.012749	3.495413
211.421385	3811.237676	1.731635	0.012734	3.500054
211.754683	3822.253511	1.736640	0.012668	3.504719
211.987863	3833.270703	1.741644	0.012622	3.509367
212.402333	3844.269686	1.746649	0.012541	3.514021
212.833059	3855.291907	1.751654	0.012458	3.518681
213.195335	3866.304398	1.756658	0.012387	3.523323
213.476854	3877.323753	1.761663	0.012332	3.527952
213.630507	3888.352082	1.766668	0.012300	3.532565
214.024166	3899.360637	1.771673	0.012223	3.537190
214.444063	3910.345281	1.776677	0.012142	3.541802
214.836675	3921.394174	1.781682	0.012065	3.546432
215.278477	3932.391050	1.786687	0.011980	3.551039
215.602215	3943.411118	1.791692	0.011916	3.555637
215.979940	3954.408508	1.796696	0.011843	3.560225
216.384964	3965.463771	1.801701	0.011764	3.564835
216.837212	3976.444474	1.806706	0.011676	3.569413
217.059136	3987.495586	1.811710	0.011632	3.573988
217.398053	3998.498477	1.816715	0.011566	3.578550
217.656007	4009.516922	1.821720	0.011515	3.583104
218.135504	4020.519906	1.826725	0.011422	3.587671
218.380212	4031.543058	1.831729	0.011373	3.592213
218.646107	4042.577008	1.836734	0.011321	3.596757
218.842775	4053.573329	1.841739	0.011281	3.601272
219.286280	4064.590427	1.846744	0.011195	3.605817
219.838736	4075.600427	1.851748	0.011089	3.610365
220.067202	4086.613693	1.856753	0.011043	3.614873
220.636065	4097.646344	1.861758	0.010934	3.619420
221.024567	4108.721346	1.866762	0.010858	3.623959
221.130507	4119.735439	1.871767	0.010835	3.628437
221.460211	4130.726223	1.876772	0.010771	3.632925
221.705024	4141.754169	1.881777	0.010722	3.637412
222.111182	4152.742406	1.886781	0.010643	3.641895
222.414545	4163.806575	1.891786	0.010584	3.646393
222.933077	4174.775117	1.896791	0.010484	3.650869
223.136851	4185.814279	1.901795	0.010443	3.655334
223.606143	4196.807993	1.906800	0.010352	3.659804
223.853819	4207.863045	1.911805	0.010303	3.664269
224.240185	4218.847803	1.916810	0.010227	3.668716
224.813797	4229.851611	1.921814	0.010117	3.673184
225.199770	4240.913125	1.926819	0.010042	3.677650
225.555432	4251.893967	1.931824	0.009972	3.682075
226.294530	4262.902950	1.936829	0.009831	3.686546
226.528193	4273.928125	1.941833	0.009784	3.690965
227.124594	4284.940951	1.946838	0.009670	3.695412
227.260082	4295.968513	1.951843	0.009642	3.699811
227.829824	4306.974707	1.956847	0.009532	3.704242
228.020037	4317.996607	1.961852	0.009494	3.708634
228.409400	4329.030368	1.966857	0.009418	3.713046
228.744214	4340.039682	1.971862	0.009352	3.717437
229.005285	4351.054589	1.976866	0.009301	3.721818
229.259632	4362.065460	1.981871	0.009250	3.726191
229.699329	4373.057303	1.986876	0.009165	3.730571
229.957980	4384.108519	1.991881	0.009114	3.734950
230.184235	4395.091585	1.996885	0.009068	3.739294
230.464090	4406.131012	2.001890	0.009013	3.743660
230.866846	4417.121621	2.006895	0.008935	3.748015
