Wed Nov 23 17:50:12 2022

Number of Points = 2200
Depth (nm)	Load (µN)	Time (s)	Depth (V)	Load (V)
-0.792489	1.687670	0.000000	-0.004490	1.070701
0.000000	8.071752	0.005005	-0.004640	1.079814
0.549282	17.437592	0.010009	-0.004746	1.092743
1.397176	28.069166	0.015014	-0.004908	1.107344
1.863040	39.183562	0.020019	-0.004998	1.122203
2.469996	50.267495	0.025024	-0.005114	1.136895
2.633527	61.473714	0.030028	-0.005148	1.151347
3.037501	72.553088	0.035033	-0.005226	1.165571
3.048610	83.724701	0.040038	-0.005231	1.179559
3.494936	94.763492	0.045043	-0.005318	1.193416
3.941984	105.861399	0.050047	-0.005404	1.207185
4.405239	116.955178	0.055052	-0.005494	1.220802
4.691609	128.100575	0.060057	-0.005550	1.234252
4.900716	139.201853	0.065061	-0.005592	1.247471
5.231479	150.271303	0.070066	-0.005657	1.260567
5.600045	161.353720	0.075071	-0.005729	1.273559
5.953797	172.442231	0.080076	-0.005798	1.286420
6.266423	183.571099	0.085080	-0.005860	1.299182
10.072446	193.607392	0.090085	-0.006576	1.312020
15.590704	204.912673	0.095090	-0.007615	1.326825
16.019979	216.636421	0.100094	-0.007698	1.339897
16.817357	227.753350	0.105099	-0.007850	1.352329
17.729559	238.832565	0.110104	-0.008024	1.364651
18.465795	249.919637	0.115109	-0.008165	1.376803
18.840194	261.090819	0.120113	-0.008238	1.388799
19.480905	272.084744	0.125118	-0.008361	1.400606
20.439800	283.103626	0.130123	-0.008544	1.412461
21.202325	294.223458	0.135128	-0.008690	1.424247
21.901122	305.295655	0.140132	-0.008824	1.435863
22.534514	316.363715	0.145137	-0.008945	1.447358
23.325841	327.404263	0.150142	-0.009096	1.458791
23.916342	338.494416	0.155146	-0.009210	1.470113
24.621506	349.543995	0.160151	-0.009345	1.481348
25.057501	360.659171	0.165156	-0.009429	1.492467
25.723430	371.682645	0.170161	-0.009557	1.503495
26.244647	382.746305	0.175165	-0.009658	1.514431
26.800987	393.819791	0.180170	-0.009765	1.525310
27.518440	404.839682	0.185175	-0.009902	1.536116
28.160444	415.905719	0.190180	-0.010025	1.546864
28.606998	426.998525	0.195184	-0.010112	1.557496
29.149375	438.029420	0.200189	-0.010216	1.568031
29.493875	449.145367	0.205194	-0.010284	1.578508
30.143414	460.101594	0.210198	-0.010408	1.588869
30.760801	471.187299	0.215203	-0.010527	1.599271
31.578533	482.177875	0.220208	-0.010683	1.609583
32.095415	493.315360	0.225213	-0.010783	1.619866
32.517638	504.367043	0.230217	-0.010865	1.629975
32.922951	515.402161	0.235222	-0.010944	1.640003
33.651107	526.386760	0.240227	-0.011083	1.650026
34.180128	537.479032	0.245232	-0.011185	1.660020
34.940898	548.500432	0.250236	-0.011331	1.669965
35.499105	559.555143	0.255241	-0.011438	1.679817
36.234937	570.590775	0.260246	-0.011579	1.689649
36.499843	581.714565	0.265250	-0.011631	1.699356
37.133718	592.673651	0.270255	-0.011753	1.708979
37.565584	603.777898	0.275260	-0.011837	1.718610
38.022171	614.785881	0.280265	-0.011925	1.728113
38.758159	625.826689	0.285269	-0.012066	1.737675
39.154956	636.890651	0.290274	-0.012143	1.747103
39.893828	647.879064	0.295279	-0.012284	1.756518
40.550225	658.949688	0.300283	-0.012410	1.765926
40.827519	670.043169	0.305288	-0.012465	1.775193
41.282144	681.060112	0.310293	-0.012553	1.784400
41.702534	692.074406	0.315298	-0.012635	1.793548
42.275231	703.122332	0.320302	-0.012745	1.802720
42.984404	714.132475	0.325307	-0.012881	1.811853
43.560863	725.196010	0.330312	-0.012992	1.820946
44.279917	736.189593	0.335317	-0.013129	1.829977
44.766468	747.280012	0.340321	-0.013223	1.838976
45.228274	758.326969	0.345326	-0.013313	1.847889
45.614162	769.388667	0.350331	-0.013388	1.856750
46.014857	780.404828	0.355335	-0.013466	1.865537
46.497809	791.409497	0.360340	-0.013559	1.874297
46.926858	802.476739	0.365345	-0.013642	1.883049
47.332200	813.522551	0.370350	-0.013721	1.891738
47.862784	824.523528	0.375354	-0.013824	1.900386
48.264841	835.571496	0.380359	-0.013902	1.908996
48.760578	846.610185	0.385364	-0.013997	1.917585
49.184962	857.651426	0.390369	-0.014080	1.926119
49.910509	868.640482	0.395373	-0.014219	1.934654
50.338693	879.713320	0.400378	-0.014302	1.943137
50.820737	890.726666	0.405383	-0.014395	1.951552
51.412658	901.750203	0.410387	-0.014509	1.959967
51.859246	912.809507	0.415392	-0.014595	1.968335
52.426627	923.841891	0.420397	-0.014704	1.976679
52.724567	934.888186	0.425402	-0.014763	1.984929
53.125312	945.925287	0.430406	-0.014841	1.993163
53.589949	956.935093	0.435411	-0.014931	2.001360
54.162076	967.941618	0.440416	-0.015041	2.009548
54.718743	979.010710	0.445421	-0.015148	2.017744
55.146338	990.027016	0.450425	-0.015231	2.025836
55.643696	1001.054565	0.455430	-0.015327	2.033921
56.193266	1012.093882	0.460435	-0.015433	2.041996
56.644182	1023.119003	0.465439	-0.015520	2.050003
57.056088	1034.194486	0.470444	-0.015600	2.058006
57.285282	1045.217968	0.475449	-0.015646	2.065897
58.054281	1056.169171	0.480454	-0.015793	2.073837
58.697214	1067.233274	0.485458	-0.015917	2.081795
59.189043	1078.308385	0.490463	-0.016012	2.089694
59.537888	1089.332781	0.495468	-0.016080	2.097494
59.888959	1100.354633	0.500472	-0.016148	2.105264
60.195993	1111.395060	0.505477	-0.016209	2.113007
60.727560	1122.390519	0.510482	-0.016311	2.120744
61.263661	1133.426275	0.515487	-0.016415	2.128481
61.598544	1144.481847	0.520491	-0.016480	2.136156
62.054977	1155.468537	0.525496	-0.016568	2.143785
62.380414	1166.545570	0.530501	-0.016632	2.151419
62.662061	1177.571126	0.535506	-0.016688	2.158980
63.156431	1188.562044	0.540510	-0.016783	2.166539
63.914572	1199.566083	0.545515	-0.016928	2.174142
64.444116	1210.621445	0.550520	-0.017030	2.181700
64.933358	1221.647374	0.555524	-0.017125	2.189203
65.269734	1232.703880	0.560529	-0.017191	2.196666
65.622898	1243.716625	0.565534	-0.017260	2.204078
66.187919	1254.720027	0.570539	-0.017369	2.211507
66.717263	1265.759002	0.575543	-0.017471	2.218926
67.134122	1276.790163	0.580548	-0.017552	2.226290
67.569765	1287.819908	0.585553	-0.017636	2.233633
67.955471	1298.866934	0.590558	-0.017711	2.240951
68.434723	1309.862857	0.595562	-0.017804	2.248234
68.859652	1320.924746	0.600567	-0.017886	2.255523
69.393442	1331.909813	0.605572	-0.017989	2.262763
69.540133	1342.988081	0.610576	-0.018019	2.269955
69.856767	1353.963698	0.615581	-0.018082	2.277096
70.499051	1364.982436	0.620586	-0.018205	2.284312
70.892378	1376.031973	0.625591	-0.018281	2.291471
71.431185	1387.031511	0.630595	-0.018385	2.298607
71.834554	1398.070185	0.635600	-0.018464	2.305716
72.610922	1409.076945	0.640605	-0.018612	2.312863
73.038425	1420.123970	0.645610	-0.018695	2.319939
73.590985	1431.143564	0.650614	-0.018801	2.327002
73.813866	1442.212909	0.655619	-0.018846	2.334006
74.294347	1453.194307	0.660624	-0.018939	2.340988
74.619608	1464.237155	0.665628	-0.019003	2.347954
74.866857	1475.289963	0.670633	-0.019052	2.354891
75.069867	1486.273106	0.675638	-0.019092	2.361754
75.765916	1497.274820	0.680643	-0.019226	2.368710
76.111368	1508.339373	0.685647	-0.019293	2.375613
76.320720	1519.372368	0.690652	-0.019335	2.382448
76.645098	1530.384969	0.695657	-0.019399	2.389275
77.080112	1541.389319	0.700661	-0.019483	2.396099
77.416958	1552.434967	0.705666	-0.019549	2.402909
77.740522	1563.463168	0.710671	-0.019613	2.409687
78.193233	1574.452954	0.715676	-0.019700	2.416448
78.572706	1585.510124	0.720680	-0.019774	2.423216
79.053632	1596.483953	0.725685	-0.019867	2.429935
79.384899	1607.570629	0.730690	-0.019932	2.436673
79.578610	1618.572325	0.735695	-0.019971	2.443315
79.946858	1629.579826	0.740699	-0.020043	2.449976
80.409181	1640.604651	0.745704	-0.020133	2.456648
80.806430	1651.641213	0.750709	-0.020210	2.463296
81.002026	1662.652327	0.755713	-0.020249	2.469872
81.488578	1673.672712	0.760718	-0.020343	2.476492
81.792394	1684.703663	0.765723	-0.020403	2.483065
82.078364	1695.753118	0.770728	-0.020459	2.489628
82.178877	1706.787337	0.775732	-0.020481	2.496130
82.635501	1717.757520	0.780737	-0.020569	2.502645
82.882144	1728.787367	0.785742	-0.020618	2.509138
83.387517	1739.793383	0.790747	-0.020716	2.515649
83.706806	1750.840249	0.795751	-0.020779	2.522131
84.180992	1761.839195	0.800756	-0.020870	2.528599
84.889149	1772.871323	0.805761	-0.021006	2.535112
85.084541	1783.909092	0.810765	-0.021045	2.541516
85.598772	1794.905494	0.815770	-0.021145	2.547940
85.935304	1805.952548	0.820775	-0.021210	2.554343
86.434695	1816.936298	0.825780	-0.021307	2.560724
86.913918	1827.994045	0.830784	-0.021399	2.567128
87.253099	1839.042810	0.835789	-0.021466	2.573485
87.373060	1850.100154	0.840794	-0.021491	2.579790
87.554085	1861.071669	0.845799	-0.021528	2.586043
87.903033	1872.067257	0.850803	-0.021596	2.592325
88.229779	1883.092683	0.855808	-0.021660	2.598604
88.736463	1894.100946	0.860813	-0.021758	2.604891
88.953961	1905.151621	0.865817	-0.021801	2.611134
89.283496	1916.171754	0.870822	-0.021866	2.617366
89.474991	1927.187723	0.875827	-0.021905	2.623555
89.830040	1938.199377	0.880832	-0.021974	2.629757
90.173196	1949.231181	0.885836	-0.022041	2.635953
90.577477	1960.248531	0.890841	-0.022120	2.642137
90.822179	1971.261701	0.895846	-0.022168	2.648276
91.154817	1982.304214	0.900850	-0.022233	2.654432
91.518054	1993.296998	0.905855	-0.022304	2.660553
92.041046	2004.298997	0.910860	-0.022405	2.666691
92.473445	2015.354055	0.915865	-0.022489	2.672829
92.649407	2026.379805	0.920869	-0.022525	2.678892
92.907471	2037.393336	0.925874	-0.022576	2.684949
93.120477	2048.410750	0.930879	-0.022619	2.690987
93.424534	2059.401995	0.935884	-0.022678	2.697013
93.922745	2070.418031	0.940888	-0.022775	2.703071
94.223968	2081.438365	0.945893	-0.022834	2.709085
94.564942	2092.478581	0.950898	-0.022901	2.715102
94.830871	2103.491341	0.955902	-0.022953	2.721079
95.032275	2114.523948	0.960907	-0.022994	2.727042
95.530941	2125.510286	0.965912	-0.023090	2.733018
95.818473	2136.553130	0.970917	-0.023147	2.738975
96.212399	2147.547207	0.975921	-0.023223	2.744911
96.394395	2158.619680	0.980926	-0.023260	2.750840
96.537856	2169.599595	0.985931	-0.023290	2.756701
96.991690	2180.624979	0.990936	-0.023378	2.762625
97.287036	2191.646790	0.995940	-0.023436	2.768508
97.692396	2202.664575	1.000945	-0.023515	2.774395
98.036653	2213.678488	1.005950	-0.023582	2.780257
98.322736	2224.706877	1.010954	-0.023638	2.786104
98.672749	2235.732931	1.015959	-0.023707	2.791949
99.055101	2246.740840	1.020964	-0.023781	2.797776
99.289231	2257.766825	1.025969	-0.023828	2.803577
99.527109	2268.809384	1.030973	-0.023875	2.809376
99.629575	2279.806591	1.035978	-0.023897	2.815116
99.954954	2290.814431	1.040983	-0.023961	2.820887
100.433137	2301.828029	1.045988	-0.024054	2.826673
101.023969	2312.839587	1.050992	-0.024167	2.832464
101.451335	2323.876506	1.055997	-0.024250	2.838230
101.507575	2334.905435	1.061002	-0.024263	2.843921
101.755634	2345.945963	1.066006	-0.024313	2.849637
101.981877	2356.940168	1.071011	-0.024358	2.855314
102.373170	2367.939866	1.076016	-0.024434	2.861009
102.790263	2378.979693	1.081021	-0.024515	2.866717
102.957593	2390.006080	1.086025	-0.024549	2.872368
102.947047	2401.044564	1.091030	-0.024550	2.877985
103.088655	2412.019168	1.096035	-0.024579	2.883583
103.598460	2423.055216	1.101039	-0.024677	2.889259
104.071939	2434.087648	1.106044	-0.024769	2.894916
104.312073	2445.095458	1.111049	-0.024817	2.900513
104.595045	2456.096841	1.116054	-0.024873	2.906102
104.900128	2467.138450	1.121058	-0.024933	2.911705
105.067681	2478.142847	1.126063	-0.024967	2.917257
105.580602	2489.162235	1.131068	-0.025066	2.922858
105.849277	2500.182812	1.136073	-0.025119	2.928412
106.103474	2511.211508	1.141077	-0.025169	2.933958
106.171742	2522.247043	1.146082	-0.025185	2.939468
106.411937	2533.237950	1.151087	-0.025233	2.944971
106.968277	2544.244382	1.156091	-0.025340	2.950519
107.240830	2555.291377	1.161096	-0.025394	2.956035
107.555648	2566.293447	1.166101	-0.025455	2.961524
107.807222	2577.329735	1.171106	-0.025505	2.967010
107.709623	2588.349008	1.176110	-0.025490	2.972426
108.034762	2599.351417	1.181115	-0.025554	2.977886
108.314018	2610.361508	1.186120	-0.025609	2.983334
108.585616	2621.393075	1.191125	-0.025662	2.988780
108.756507	2632.419839	1.196129	-0.025697	2.994200
109.015817	2643.435048	1.201134	-0.025749	2.999617
109.319807	2654.427539	1.206139	-0.025808	3.005019
109.690124	2665.472896	1.211143	-0.025881	3.010448
110.029998	2676.460239	1.216148	-0.025947	3.015833
110.334426	2687.514327	1.221153	-0.026007	3.021237
110.271080	2698.523075	1.226158	-0.025998	3.026555
110.609104	2709.532565	1.231162	-0.026064	3.031922
110.946371	2720.534304	1.236167	-0.026130	3.037276
111.351862	2731.570506	1.241172	-0.026209	3.042647
111.699308	2742.591957	1.246177	-0.026277	3.047993
111.820018	2753.623215	1.251181	-0.026302	3.053301
112.043417	2764.615164	1.256186	-0.026347	3.058597
112.270106	2775.655499	1.261191	-0.026392	3.063906
112.726948	2786.627828	1.266195	-0.026480	3.069207
112.987607	2797.684449	1.271200	-0.026532	3.074510
113.188876	2808.711046	1.276205	-0.026572	3.079782
113.312896	2819.716466	1.281210	-0.026598	3.085024
113.549374	2830.746340	1.286214	-0.026646	3.090284
113.782876	2841.745951	1.291219	-0.026692	3.095521
114.202361	2852.756442	1.296224	-0.026774	3.100780
114.353121	2863.780604	1.301228	-0.026805	3.105998
114.520802	2874.806531	1.306233	-0.026839	3.111211
114.857386	2885.823961	1.311238	-0.026905	3.116435
115.085281	2896.816977	1.316243	-0.026950	3.121624
115.529312	2907.863691	1.321247	-0.027036	3.126858
115.863935	2918.859964	1.326252	-0.027102	3.132046
116.103919	2929.892569	1.331257	-0.027149	3.137228
116.349867	2940.897671	1.336262	-0.027198	3.142390
116.535177	2951.931512	1.341266	-0.027236	3.147548
116.975943	2962.920977	1.346271	-0.027321	3.152713
117.269195	2973.973418	1.351276	-0.027379	3.157877
117.569397	2984.959891	1.356280	-0.027438	3.163004
117.831843	2996.022173	1.361285	-0.027490	3.168152
117.833251	3007.004828	1.366290	-0.027493	3.173220
117.972288	3018.046334	1.371295	-0.027522	3.178325
118.211906	3029.031634	1.376299	-0.027570	3.183410
118.615451	3040.074855	1.381304	-0.027648	3.188535
118.714431	3051.073447	1.386309	-0.027669	3.193591
118.892904	3062.127254	1.391314	-0.027706	3.198675
119.144086	3073.095713	1.396318	-0.027755	3.203721
119.508404	3084.146192	1.401323	-0.027826	3.208811
119.741986	3095.134463	1.406328	-0.027873	3.213848
119.903799	3106.175386	1.411332	-0.027906	3.218891
120.141091	3117.169341	1.416337	-0.027953	3.223915
120.231673	3128.227842	1.421342	-0.027973	3.228941
120.616067	3139.185165	1.426347	-0.028048	3.233952
121.002287	3150.246445	1.431351	-0.028123	3.239002
121.198441	3161.238832	1.436356	-0.028163	3.243989
121.478371	3172.279728	1.441361	-0.028218	3.249000
121.638329	3183.268237	1.446366	-0.028251	3.253965
121.924597	3194.343179	1.451370	-0.028307	3.258977
122.079212	3205.282327	1.456375	-0.028339	3.263903
122.514356	3216.346217	1.461380	-0.028423	3.268914
122.626476	3227.345925	1.466384	-0.028447	3.273847
122.886755	3238.385788	1.471389	-0.028499	3.278810
122.979576	3249.382509	1.476394	-0.028519	3.283724
123.290278	3260.401055	1.481399	-0.028580	3.288668
123.521690	3271.408470	1.486403	-0.028626	3.293590
124.030586	3282.444438	1.491408	-0.028724	3.298552
124.240028	3293.443768	1.496413	-0.028766	3.303453
124.525042	3304.484076	1.501417	-0.028822	3.308374
124.639143	3315.470798	1.506422	-0.028846	3.313242
125.049545	3326.508790	1.511427	-0.028926	3.318163
125.174859	3337.508124	1.516432	-0.028952	3.323024
125.584719	3348.553296	1.521436	-0.029032	3.327933
125.740782	3359.537523	1.526441	-0.029064	3.332777
126.001045	3370.579708	1.531446	-0.029116	3.337652
126.197288	3381.582868	1.536451	-0.029155	3.342495
126.437288	3392.613431	1.541455	-0.029203	3.347348
126.549913	3403.615238	1.546460	-0.029227	3.352166
126.932030	3414.653227	1.551465	-0.029301	3.357026
126.936163	3425.648719	1.556469	-0.029305	3.361814
127.359444	3436.659406	1.561474	-0.029387	3.366652
127.576583	3447.677211	1.566479	-0.029430	3.371462
128.076719	3458.692246	1.571484	-0.029527	3.376298
128.368208	3469.701103	1.576488	-0.029584	3.381099
128.764406	3480.737103	1.581493	-0.029661	3.385918
129.052524	3491.739770	1.586498	-0.029718	3.390702
129.392969	3502.766856	1.591503	-0.029785	3.395496
129.485070	3513.787599	1.596507	-0.029805	3.400251
129.750632	3524.822095	1.601512	-0.029857	3.405026
129.872940	3535.815367	1.606517	-0.029883	3.409759
129.998688	3546.840571	1.611521	-0.029909	3.414500
130.204294	3557.860519	1.616526	-0.029951	3.419241
130.530170	3568.846543	1.621531	-0.030015	3.423976
131.023436	3579.876384	1.626536	-0.030110	3.428742
131.237055	3590.911459	1.631540	-0.030153	3.433471
131.495409	3601.912893	1.636545	-0.030204	3.438184
131.604751	3612.949496	1.641550	-0.030227	3.442888
131.725329	3623.952572	1.646555	-0.030252	3.447573
132.057704	3634.948488	1.651559	-0.030318	3.452273
132.315217	3645.975882	1.656564	-0.030369	3.456972
132.355421	3657.011027	1.661569	-0.030379	3.461642
132.612618	3668.011872	1.666573	-0.030430	3.466316
132.974952	3679.010076	1.671578	-0.030501	3.470995
133.215756	3690.032289	1.676583	-0.030549	3.475663
133.517429	3701.066257	1.681588	-0.030608	3.480338
133.733849	3712.077658	1.686592	-0.030651	3.484986
134.191737	3723.084171	1.691597	-0.030740	3.489654
134.264466	3734.128188	1.696602	-0.030756	3.494288
134.591447	3745.122829	1.701606	-0.030820	3.498923
135.012173	3756.138983	1.706611	-0.030902	3.503572
135.243585	3767.166257	1.711616	-0.030948	3.508198
135.517380	3778.148783	1.716621	-0.031002	3.512804
135.550819	3789.218010	1.721625	-0.031011	3.517413
135.742231	3800.188251	1.726630	-0.031050	3.521992
136.008059	3811.248402	1.731635	-0.031102	3.526611
136.112442	3822.241105	1.736640	-0.031125	3.531178
136.426066	3833.251942	1.741644	-0.031186	3.535770
136.580773	3844.249264	1.746649	-0.031218	3.540332
137.018772	3855.296478	1.751654	-0.031303	3.544941
137.256839	3866.294150	1.756658	-0.031350	3.549501
137.537808	3877.326501	1.761663	-0.031406	3.554074
137.785927	3888.321375	1.766668	-0.031455	3.558622
138.124077	3899.363407	1.771673	-0.031521	3.563194
138.228227	3910.365440	1.776677	-0.031544	3.567717
138.423247	3921.379283	1.781682	-0.031583	3.572250
138.603844	3932.389775	1.786687	-0.031620	3.576774
139.083488	3943.399340	1.791692	-0.031712	3.581324
139.247464	3954.435763	1.796696	-0.031746	3.585845
139.362801	3965.460156	1.801701	-0.031770	3.590350
139.547694	3976.455385	1.806706	-0.031808	3.594845
139.746720	3987.487679	1.811710	-0.031848	3.599351
139.875122	3998.491988	1.816715	-0.031874	3.603832
140.362042	4009.514167	1.821720	-0.031969	3.608354
140.426815	4020.528519	1.826725	-0.031983	3.612821
140.716513	4031.546314	1.831729	-0.032040	3.617308
140.912101	4042.533395	1.836734	-0.032080	3.621768
141.345025	4053.585175	1.841739	-0.032164	3.626273
141.631381	4064.563487	1.846744	-0.032220	3.630727
141.912417	4075.604294	1.851748	-0.032276	3.635200
142.297439	4086.598089	1.856753	-0.032351	3.639660
142.497571	4097.678585	1.861758	-0.032391	3.644129
142.673613	4108.702856	1.866762	-0.032427	3.648568
143.010220	4119.732012	1.871767	-0.032493	3.653020
143.271127	4130.719060	1.876772	-0.032544	3.657442
143.784033	4141.730117	1.881777	-0.032643	3.661895
143.751166	4152.779934	1.886781	-0.032640	3.666300
144.029789	4163.767689	1.891786	-0.032695	3.670708
144.117115	4174.801691	1.896791	-0.032714	3.675109
144.407863	4185.801327	1.901795	-0.032771	3.679513
144.524563	4196.827589	1.906800	-0.032796	3.683903
144.735179	4207.853640	1.911805	-0.032838	3.688298
144.911030	4218.854773	1.916810	-0.032874	3.692674
145.175573	4229.883927	1.921814	-0.032926	3.697065
145.322450	4240.874810	1.926819	-0.032957	3.701424
145.763633	4251.893358	1.931824	-0.033042	3.705818
145.837728	4262.916014	1.936829	-0.033059	3.710172
146.131028	4273.922644	1.941833	-0.033116	3.714536
146.303691	4284.936377	1.946838	-0.033152	3.718886
146.680167	4295.963730	1.951843	-0.033225	3.723256
146.833859	4306.982306	1.956847	-0.033257	3.727595
147.150047	4317.990263	1.961852	-0.033319	3.731942
147.383597	4328.993528	1.966857	-0.033365	3.736273
147.675272	4340.019567	1.971862	-0.033423	3.740614
147.668711	4351.061781	1.976866	-0.033424	3.744926
