Wed Nov 23 19:06:18 2022

Number of Points = 2200
Depth (nm)	Load (µN)	Time (s)	Depth (V)	Load (V)
-4.540551	-0.676887	0.000000	0.061285	0.869597
0.000000	5.651421	0.005005	0.060431	0.883147
2.291717	15.145365	0.010009	0.059999	0.900327
3.808940	25.986835	0.015014	0.059711	0.918892
5.239924	37.147704	0.020019	0.059440	0.937542
6.236640	48.414056	0.025024	0.059250	0.955740
7.198244	59.672905	0.030028	0.059067	0.973566
7.958355	70.922692	0.035033	0.058922	0.990946
9.354110	81.928057	0.040038	0.058657	1.008012
11.167065	93.035219	0.045043	0.058314	1.025163
12.015833	104.398487	0.050047	0.058152	1.041887
14.314601	115.070544	0.055052	0.057718	1.058129
19.299169	125.904052	0.060057	0.056780	1.075711
20.722283	137.571973	0.065061	0.056510	1.092356
22.058239	148.896354	0.070066	0.056257	1.108250
23.417948	160.030424	0.075071	0.055999	1.123678
24.908569	171.191847	0.080076	0.055716	1.138995
25.950496	182.378198	0.085080	0.055518	1.153927
27.290489	193.441215	0.090085	0.055264	1.168651
28.797458	204.546929	0.095090	0.054978	1.183320
30.106809	215.701787	0.100094	0.054730	1.197780
31.289540	226.807274	0.105099	0.054505	1.211949
32.530111	237.955479	0.110104	0.054270	1.226031
33.463086	249.080367	0.115109	0.054092	1.239790
34.817761	260.148459	0.120113	0.053835	1.253512
35.701907	271.278452	0.125118	0.053666	1.266956
37.479327	282.225314	0.130123	0.053330	1.280424
38.446027	293.483580	0.135128	0.053146	1.293768
39.499658	304.606580	0.140132	0.052945	1.306858
40.648086	315.603990	0.145137	0.052727	1.319716
42.129740	326.626077	0.150142	0.052446	1.332610
43.399907	337.765493	0.155146	0.052205	1.345425
44.895996	348.782539	0.160151	0.051922	1.358074
45.814526	359.979824	0.165156	0.051747	1.370573
47.074997	371.019884	0.170161	0.051507	1.382924
48.231920	382.080000	0.175165	0.051288	1.395146
49.308249	393.202206	0.180170	0.051083	1.407295
50.372449	404.235679	0.185175	0.050880	1.419243
51.533415	415.305951	0.190180	0.050660	1.431165
52.413213	426.440680	0.195184	0.050492	1.442949
53.899575	437.402094	0.200189	0.050210	1.454684
54.739207	448.537015	0.205194	0.050050	1.466264
56.178331	459.538370	0.210198	0.049777	1.477835
56.888818	470.705407	0.215203	0.049641	1.489220
57.968757	481.731127	0.220208	0.049436	1.500509
58.902034	492.804784	0.225213	0.049258	1.511709
60.166011	503.808874	0.230217	0.049018	1.522873
61.033927	514.904751	0.235222	0.048853	1.533907
62.304806	525.938670	0.240227	0.048611	1.544941
63.363660	537.004329	0.245232	0.048410	1.555854
64.196657	548.124328	0.250236	0.048251	1.566665
65.077530	559.133855	0.255241	0.048083	1.577314
66.265543	570.157116	0.260246	0.047857	1.588006
67.060765	581.277821	0.265250	0.047705	1.598587
67.928747	592.324202	0.270255	0.047540	1.609053
68.710448	603.387026	0.275260	0.047390	1.619438
69.630634	614.412999	0.280265	0.047215	1.629767
70.331987	625.488449	0.285269	0.047081	1.640006
71.372584	636.500792	0.290274	0.046883	1.650232
71.999227	647.591331	0.295279	0.046762	1.660333
72.979930	658.600660	0.300283	0.046575	1.670412
73.493009	669.696853	0.305288	0.046476	1.680361
74.663861	680.644060	0.310293	0.046254	1.690325
75.706594	691.751572	0.315298	0.046056	1.700329
76.651519	702.784822	0.320302	0.045876	1.710181
77.130227	713.903121	0.325307	0.045783	1.719906
77.918986	724.897206	0.330312	0.045632	1.729565
78.742424	735.932345	0.335317	0.045475	1.739214
79.733601	746.963298	0.340321	0.045286	1.748857
80.558010	758.010844	0.345326	0.045129	1.758410
81.544794	769.041780	0.350331	0.044941	1.767946
82.156443	780.147439	0.355335	0.044823	1.777382
83.133571	791.127610	0.360340	0.044637	1.786771
83.911825	802.162747	0.365345	0.044489	1.796098
84.963659	813.209612	0.370350	0.044289	1.805464
85.651874	824.292370	0.375354	0.044157	1.814707
86.432558	835.298998	0.380359	0.044007	1.823868
87.064997	846.370450	0.385364	0.043886	1.832992
88.076750	857.373476	0.390369	0.043693	1.842123
88.897162	868.415734	0.395373	0.043537	1.851186
89.777689	879.471057	0.400378	0.043369	1.860232
90.220182	890.530374	0.405383	0.043283	1.869116
91.206177	901.529009	0.410387	0.043095	1.878059
91.540443	912.628851	0.415392	0.043030	1.886860
92.430872	923.606883	0.420397	0.042860	1.895677
92.998557	934.675086	0.425402	0.042751	1.904435
94.112900	945.634607	0.430406	0.042539	1.913216
94.689179	956.770316	0.435411	0.042428	1.921947
95.382693	967.757324	0.440416	0.042295	1.930557
96.122135	978.811167	0.445421	0.042154	1.939191
96.838824	989.809957	0.450425	0.042017	1.947738
97.661181	1000.875597	0.455430	0.041860	1.956326
98.524918	1011.868311	0.460435	0.041695	1.964832
99.144431	1022.944673	0.465439	0.041576	1.973301
100.163879	1033.947116	0.470444	0.041382	1.981781
100.615906	1045.032048	0.475449	0.041294	1.990140
101.312798	1056.059849	0.480454	0.041161	1.998484
102.127038	1067.051499	0.485458	0.041005	2.006796
103.155302	1078.090865	0.490463	0.040809	2.015163
103.734572	1089.147218	0.495468	0.040698	2.023394
104.522536	1100.172488	0.500472	0.040547	2.031621
105.138427	1111.215595	0.505477	0.040429	2.039785
105.974068	1122.202823	0.510482	0.040270	2.047930
106.605301	1133.302061	0.515487	0.040148	2.056073
107.249181	1144.313273	0.520491	0.040025	2.064124
107.797281	1155.339096	0.525496	0.039919	2.072129
108.606487	1166.352790	0.530501	0.039765	2.080159
109.148528	1177.409402	0.535506	0.039660	2.088123
109.938137	1188.409485	0.540510	0.039509	2.096077
110.593498	1199.457732	0.545515	0.039384	2.104002
111.142424	1210.497419	0.550520	0.039278	2.111865
111.775381	1221.511921	0.555524	0.039157	2.119701
112.695185	1232.521178	0.560529	0.038981	2.127573
113.412699	1243.564488	0.565534	0.038844	2.135391
114.153282	1254.590794	0.570539	0.038702	2.143173
114.664263	1265.651877	0.575543	0.038604	2.150898
115.335268	1276.655364	0.580548	0.038475	2.158593
115.710822	1287.711948	0.585553	0.038402	2.166228
116.545343	1298.711487	0.590558	0.038242	2.173903
117.010221	1309.769863	0.595562	0.038152	2.181505
117.664821	1320.774381	0.600567	0.038027	2.189088
118.275701	1331.792579	0.605572	0.037909	2.196644
118.880678	1342.841545	0.610576	0.037793	2.204193
119.526354	1353.851195	0.615581	0.037669	2.211699
120.251652	1364.886185	0.620586	0.037531	2.219214
120.841432	1375.896904	0.625591	0.037417	2.226657
121.516932	1386.952118	0.630595	0.037288	2.234124
122.126376	1397.955318	0.635600	0.037171	2.241516
122.720189	1409.003047	0.640605	0.037056	2.248910
123.251076	1420.049848	0.645610	0.036954	2.256265
123.901232	1431.033789	0.650614	0.036829	2.263580
124.465932	1442.058484	0.655619	0.036721	2.270880
125.086201	1453.102952	0.660624	0.036602	2.278181
125.432939	1464.158091	0.665628	0.036534	2.285407
126.212907	1475.135889	0.670633	0.036385	2.292653
126.878695	1486.152785	0.675638	0.036257	2.299876
127.692074	1497.186235	0.680643	0.036102	2.307119
128.211864	1508.250194	0.685647	0.036001	2.314295
128.744434	1519.243689	0.690652	0.035899	2.321407
129.203322	1530.281250	0.695657	0.035810	2.328510
130.166424	1541.271469	0.700661	0.035626	2.335667
130.687966	1552.347634	0.705666	0.035526	2.342764
131.268738	1563.348601	0.710671	0.035414	2.349804
131.769060	1574.400182	0.715676	0.035318	2.356837
132.074124	1585.435455	0.720680	0.035258	2.363799
132.645571	1596.420393	0.725685	0.035148	2.370764
133.273480	1607.458111	0.730690	0.035027	2.377753
133.750946	1618.473024	0.735695	0.034935	2.384676
134.410112	1629.494393	0.740699	0.034808	2.391620
134.564238	1640.587445	0.745704	0.034777	2.398486
135.039131	1651.542995	0.750709	0.034685	2.405312
135.569313	1662.593104	0.755713	0.034583	2.412187
136.281067	1673.577974	0.760718	0.034446	2.419040
136.861323	1684.605694	0.765723	0.034335	2.425872
137.252052	1695.668156	0.770728	0.034259	2.432669
137.609371	1706.684071	0.775732	0.034189	2.439412
137.989540	1717.710583	0.780737	0.034115	2.446147
138.717383	1728.688221	0.785742	0.033976	2.452902
139.551940	1739.709671	0.790747	0.033816	2.459686
140.113436	1750.759407	0.795751	0.033708	2.466414
140.550487	1761.825582	0.800756	0.033623	2.473110
140.767479	1772.826537	0.805761	0.033580	2.479705
141.409711	1783.805560	0.810765	0.033457	2.486353
141.971276	1794.872049	0.815770	0.033349	2.493018
142.507128	1805.880544	0.820775	0.033245	2.499627
142.914715	1816.903907	0.825780	0.033166	2.506202
143.608877	1827.922747	0.830784	0.033033	2.512812
144.024553	1838.933497	0.835789	0.032952	2.519346
144.736089	1849.956342	0.840794	0.032816	2.525927
145.292748	1860.987048	0.845799	0.032709	2.532465
145.768709	1872.029390	0.850803	0.032617	2.538978
146.172236	1883.027222	0.855808	0.032539	2.545435
147.070654	1894.019475	0.860813	0.032367	2.551965
147.529654	1905.099639	0.865817	0.032278	2.558447
147.971527	1916.107129	0.870822	0.032193	2.564867
148.487388	1927.125234	0.875827	0.032093	2.571290
149.056814	1938.203474	0.880832	0.031984	2.577742
149.383372	1949.184654	0.885836	0.031920	2.584078
150.027533	1960.159959	0.890841	0.031796	2.590452
150.714812	1971.193043	0.895846	0.031664	2.596852
151.554499	1982.208145	0.900850	0.031504	2.603253
151.937483	1993.248784	0.905855	0.031429	2.609570
152.236077	2004.291682	0.910860	0.031371	2.615857
152.736484	2015.298362	0.915865	0.031274	2.622145
153.246176	2026.321942	0.920869	0.031176	2.628429
153.796590	2037.307716	0.925874	0.031070	2.634684
154.615629	2048.326851	0.930879	0.030913	2.640991
155.011550	2059.365454	0.935884	0.030836	2.647218
155.412819	2070.409217	0.940888	0.030758	2.653434
155.724329	2081.406921	0.945893	0.030697	2.659594
156.248203	2092.409840	0.950898	0.030596	2.665780
156.875386	2103.435602	0.955902	0.030476	2.671982
157.620836	2114.438361	0.960907	0.030333	2.678178
157.961926	2125.498093	0.965912	0.030266	2.684320
158.199100	2136.512868	0.970917	0.030219	2.690405
158.584087	2147.543204	0.975921	0.030144	2.696510
159.207177	2158.528299	0.980926	0.030024	2.702618
159.714501	2169.553852	0.985931	0.029927	2.708714
160.153340	2180.574797	0.990936	0.029841	2.714782
160.621414	2191.624997	0.995940	0.029751	2.720857
160.870676	2202.640139	1.000945	0.029701	2.726862
161.448906	2213.646881	1.005950	0.029590	2.732906
162.257374	2224.619045	1.010954	0.029436	2.738956
162.671335	2235.688210	1.015959	0.029355	2.744978
163.108106	2246.720877	1.020964	0.029271	2.750971
163.486051	2257.738239	1.025969	0.029197	2.756933
163.837261	2268.743847	1.030973	0.029128	2.762871
164.248034	2279.766648	1.035978	0.029049	2.768815
164.727706	2290.795032	1.040983	0.028956	2.774761
165.062295	2301.797056	1.045988	0.028890	2.780656
165.672748	2312.824009	1.050992	0.028773	2.786597
166.014797	2323.866774	1.055997	0.028706	2.792489
166.541961	2334.838829	1.061002	0.028605	2.798362
167.105546	2345.871939	1.066006	0.028496	2.804261
167.585884	2356.926920	1.071011	0.028403	2.810145
167.973497	2367.917612	1.076016	0.028328	2.815968
168.341887	2378.965591	1.081021	0.028256	2.821806
168.728019	2389.964923	1.086025	0.028181	2.827608
169.399107	2400.955364	1.091030	0.028052	2.833441
169.868924	2411.984724	1.096035	0.027961	2.839248
170.513096	2423.021234	1.101039	0.027838	2.845076
170.853885	2434.063278	1.106044	0.027771	2.850846
171.208723	2445.057212	1.111049	0.027702	2.856581
171.504563	2456.099159	1.116054	0.027643	2.862320
172.172849	2467.065162	1.121058	0.027515	2.868068
172.887669	2478.091365	1.126063	0.027378	2.873842
173.279439	2489.152832	1.131068	0.027302	2.879572
173.554481	2500.174920	1.136073	0.027248	2.885251
173.858643	2511.204597	1.141077	0.027188	2.890928
174.321351	2522.203963	1.146082	0.027098	2.896603
174.689842	2533.204551	1.151087	0.027027	2.902252
175.146044	2544.218612	1.156091	0.026938	2.907911
175.725000	2555.246710	1.161096	0.026827	2.913585
176.089554	2566.266100	1.166101	0.026756	2.919210
176.815551	2577.253725	1.171106	0.026617	2.924864
177.365171	2588.319171	1.176110	0.026511	2.930519
177.726369	2599.321051	1.181115	0.026440	2.936102
178.006778	2610.364549	1.186120	0.026385	2.941683
178.563897	2621.341983	1.191125	0.026278	2.947263
178.970828	2632.400306	1.196129	0.026199	2.952849
179.288939	2643.399236	1.201134	0.026136	2.958381
179.737983	2654.419559	1.206139	0.026049	2.963934
180.052741	2665.467194	1.211143	0.025987	2.969469
180.379974	2676.458918	1.216148	0.025923	2.974968
180.673331	2687.481610	1.221153	0.025866	2.980467
180.981220	2698.504152	1.226158	0.025805	2.985958
181.424553	2709.517816	1.231162	0.025719	2.991455
181.867799	2720.519251	1.236167	0.025633	2.996935
182.295079	2731.553139	1.241172	0.025550	3.002419
182.603903	2742.576466	1.246177	0.025490	3.007870
182.845146	2753.590688	1.251181	0.025442	3.013297
183.219624	2764.595838	1.256186	0.025369	3.018729
183.634627	2775.624433	1.261191	0.025288	3.024168
184.296995	2786.622199	1.266195	0.025161	3.029619
184.737872	2797.656140	1.271200	0.025076	3.035045
185.293178	2808.677966	1.276205	0.024969	3.040472
185.729914	2819.687189	1.281210	0.024884	3.045866
186.249047	2830.717632	1.286214	0.024784	3.051272
186.548004	2841.731667	1.291219	0.024725	3.056629
186.925191	2852.742653	1.296224	0.024652	3.061987
187.403515	2863.747729	1.301228	0.024559	3.067346
187.630076	2874.796803	1.306233	0.024514	3.072681
187.995594	2885.795274	1.311238	0.024443	3.078003
188.466119	2896.829648	1.316243	0.024352	3.083347
188.965119	2907.818937	1.321247	0.024255	3.088664
189.300142	2918.856707	1.326252	0.024190	3.093972
189.837734	2929.866869	1.331257	0.024086	3.099287
190.255637	2940.884600	1.336262	0.024005	3.104578
190.694907	2951.913942	1.341266	0.023920	3.109870
191.120413	2962.923044	1.346271	0.023837	3.115140
191.564336	2973.953084	1.351276	0.023751	3.120414
191.773004	2984.976968	1.356280	0.023709	3.125644
192.193911	2995.994122	1.361285	0.023627	3.130890
192.535254	3006.990507	1.366290	0.023561	3.136108
193.029721	3017.996459	1.371295	0.023465	3.141342
193.293197	3029.056525	1.376299	0.023413	3.146560
193.690057	3040.042627	1.381304	0.023336	3.151754
194.059634	3051.067989	1.386309	0.023264	3.156954
194.526259	3062.073423	1.391314	0.023173	3.162149
194.780247	3073.112729	1.396318	0.023123	3.167322
195.197599	3084.105079	1.401323	0.023042	3.172487
195.684686	3095.147931	1.406328	0.022948	3.177676
196.075142	3106.151219	1.411332	0.022872	3.182826
196.348094	3117.190798	1.416337	0.022818	3.187968
197.009691	3128.152824	1.421342	0.022691	3.193118
197.279529	3139.227637	1.426347	0.022638	3.198259
197.663040	3150.214164	1.431351	0.022563	3.203366
198.271067	3161.237032	1.436356	0.022446	3.208512
198.656392	3172.247517	1.441361	0.022371	3.213614
198.885727	3183.272699	1.446366	0.022325	3.218694
199.553065	3194.267904	1.451370	0.022198	3.223810
199.940949	3205.328613	1.456375	0.022122	3.228910
200.383167	3216.301019	1.461380	0.022036	3.233970
200.642990	3227.360916	1.466384	0.021985	3.239037
200.809333	3238.356731	1.471389	0.021951	3.244055
201.308571	3249.392226	1.476394	0.021854	3.249127
201.413229	3260.392885	1.481399	0.021832	3.254123
202.058589	3271.405584	1.486403	0.021708	3.259188
202.277013	3282.434941	1.491408	0.021665	3.264196
202.595006	3293.463957	1.496413	0.021602	3.269210
202.841948	3304.454265	1.501417	0.021553	3.274189
203.367489	3315.484583	1.506422	0.021452	3.279215
203.726239	3326.470113	1.511427	0.021382	3.284191
204.303175	3337.530883	1.516432	0.021271	3.289221
204.756670	3348.508268	1.521436	0.021183	3.294190
205.184058	3359.568189	1.526441	0.021100	3.299186
205.605700	3370.530665	1.531446	0.021018	3.304129
205.940417	3381.592972	1.536451	0.020953	3.309098
206.340576	3392.591792	1.541455	0.020875	3.314040
206.539703	3403.646298	1.546460	0.020835	3.318974
206.984420	3414.606114	1.551465	0.020749	3.323889
207.309989	3425.666514	1.556469	0.020685	3.328827
207.654354	3436.648571	1.561474	0.020617	3.333724
208.095128	3447.691307	1.566479	0.020532	3.338654
208.307865	3458.685595	1.571484	0.020489	3.343526
208.790086	3469.722190	1.576488	0.020396	3.348443
208.948798	3480.728907	1.581493	0.020364	3.353300
209.235240	3491.770531	1.586498	0.020307	3.358180
209.601375	3502.763976	1.591503	0.020236	3.363043
210.054280	3513.784251	1.596507	0.020148	3.367920
210.477291	3524.792885	1.601512	0.020066	3.372782
210.638062	3535.844229	1.606517	0.020033	3.377623
211.034247	3546.791007	1.611521	0.019956	3.382440
211.420069	3557.868004	1.616526	0.019881	3.387305
211.866074	3568.827932	1.621531	0.019794	3.392121
212.335869	3579.893725	1.626536	0.019704	3.396977
212.679149	3590.879902	1.631540	0.019636	3.401778
213.103065	3601.921531	1.636545	0.019554	3.406604
213.280314	3612.936650	1.641550	0.019518	3.411383
213.730526	3623.939123	1.646555	0.019431	3.416183
214.055882	3634.954543	1.651559	0.019367	3.420966
214.584348	3645.984413	1.656564	0.019265	3.425773
214.786210	3656.979905	1.661569	0.019225	3.430519
215.194916	3668.017909	1.666573	0.019145	3.435302
215.527915	3679.033592	1.671578	0.019080	3.440059
215.939030	3690.052703	1.676583	0.019000	3.444821
216.348146	3701.060940	1.681588	0.018921	3.449570
216.687384	3712.081348	1.686592	0.018854	3.454311
217.088067	3723.081912	1.691597	0.018776	3.459043
217.655344	3734.104119	1.696602	0.018667	3.463797
218.104579	3745.123051	1.701606	0.018580	3.468530
218.319914	3756.143774	1.706611	0.018537	3.473230
218.568242	3767.166867	1.711616	0.018488	3.477928
218.746651	3778.175565	1.716621	0.018452	3.482605
219.205948	3789.183526	1.721625	0.018363	3.487308
219.776360	3800.203720	1.726630	0.018253	3.492023
220.109436	3811.215358	1.731635	0.018188	3.496700
220.755206	3822.217395	1.736640	0.018064	3.501403
220.929618	3833.269967	1.741644	0.018028	3.506067
221.463756	3844.232503	1.746649	0.017925	3.510728
222.006458	3855.270400	1.751654	0.017821	3.515415
222.818370	3866.287519	1.756658	0.017666	3.520118
223.431785	3877.300896	1.761663	0.017548	3.524790
223.777158	3888.366403	1.766668	0.017480	3.529447
224.175492	3899.329021	1.771673	0.017403	3.534061
224.519925	3910.397518	1.776677	0.017335	3.538707
224.825997	3921.359005	1.781682	0.017275	3.543298
225.393890	3932.397301	1.786687	0.017166	3.547944
225.690808	3943.400306	1.791692	0.017108	3.552539
226.018072	3954.427739	1.796696	0.017043	3.557141
226.476170	3965.432933	1.801701	0.016955	3.561743
227.071050	3976.469615	1.806706	0.016840	3.566367
227.580784	3987.441844	1.811710	0.016742	3.570949
228.221014	3998.499708	1.816715	0.016619	3.575574
228.561460	4009.486734	1.821720	0.016553	3.580132
228.884514	4020.537606	1.826725	0.016489	3.584707
229.257851	4031.525450	1.831729	0.016416	3.589257
229.757430	4042.548645	1.836734	0.016320	3.593828
230.302501	4053.555075	1.841739	0.016215	3.598393
230.740312	4064.616882	1.846744	0.016130	3.602962
230.957551	4075.597446	1.851748	0.016087	3.607468
231.428990	4086.624502	1.856753	0.015995	3.612014
231.711936	4097.660873	1.861758	0.015940	3.616539
232.107966	4108.685827	1.866762	0.015863	3.621065
232.507110	4119.714877	1.871767	0.015785	3.625588
232.848596	4130.735639	1.876772	0.015718	3.630095
233.241014	4141.734530	1.881777	0.015642	3.634593
233.856212	4152.740845	1.886781	0.015524	3.639112
234.243327	4163.779278	1.891786	0.015448	3.643615
234.774172	4174.794468	1.896791	0.015346	3.648117
235.020262	4185.799791	1.901795	0.015297	3.652580
235.813572	4196.812470	1.906800	0.015145	3.657098
236.274043	4207.807599	1.911805	0.015056	3.661568
236.679472	4218.876188	1.916810	0.014977	3.666056
237.013949	4229.844976	1.921814	0.014912	3.670491
237.133922	4240.922691	1.926819	0.014887	3.674942
237.628294	4251.882863	1.931824	0.014791	3.679380
238.086716	4262.933356	1.936829	0.014703	3.683844
238.424914	4273.934463	1.941833	0.014636	3.688271
238.698522	4284.964422	1.946838	0.014582	3.692697
239.066693	4295.966665	1.951843	0.014510	3.697116
239.520315	4306.960871	1.956847	0.014423	3.701536
239.769521	4318.003851	1.961852	0.014373	3.705949
240.108647	4329.020252	1.966857	0.014307	3.710355
240.443290	4340.016530	1.971862	0.014241	3.714747
240.937947	4351.050810	1.976866	0.014146	3.719166
241.179405	4362.054575	1.981871	0.014098	3.723541
241.596063	4373.080628	1.986876	0.014017	3.727938
241.913867	4384.094992	1.991881	0.013954	3.732315
242.266198	4395.108076	1.996885	0.013886	3.736689
242.469289	4406.103896	2.001890	0.013845	3.741037
242.974939	4417.141042	2.006895	0.013747	3.745426
