Wed Nov 23 17:50:12 2022

Number of Points = 2200
Depth (nm)	Load (µN)	Time (s)	Depth (V)	Load (V)
-6.054048	1.056122	0.000000	-0.013328	1.093399
0.000000	6.847239	0.005005	-0.014466	1.104101
5.860237	16.205938	0.010009	-0.015568	1.119286
9.981832	27.339658	0.015014	-0.016344	1.135728
12.693246	38.738002	0.020019	-0.016855	1.151610
14.840962	50.046656	0.025024	-0.017261	1.166901
16.355280	61.335706	0.030028	-0.017548	1.181680
17.904814	72.445696	0.035033	-0.017842	1.196072
19.627928	83.558193	0.040038	-0.018168	1.210372
20.936070	94.752202	0.045043	-0.018416	1.224419
21.975918	105.908921	0.050047	-0.018614	1.238146
24.480849	116.676002	0.055052	-0.019087	1.251893
25.963724	128.023963	0.060057	-0.019368	1.265728
27.186684	139.170506	0.065061	-0.019600	1.279074
28.707387	150.171355	0.070066	-0.019888	1.292239
30.298320	161.346556	0.075071	-0.020189	1.305494
31.678949	172.392826	0.080076	-0.020451	1.318387
33.438847	183.404436	0.085080	-0.020784	1.331268
34.776583	194.591294	0.090085	-0.021038	1.344048
36.059457	205.661156	0.095090	-0.021281	1.356559
37.356572	216.740686	0.100094	-0.021527	1.368971
38.853152	227.788953	0.105099	-0.021811	1.381313
40.063195	238.912959	0.110104	-0.022041	1.393517
41.211321	250.000850	0.115109	-0.022259	1.405552
42.481244	261.049557	0.120113	-0.022500	1.417490
43.871021	272.093612	0.125118	-0.022763	1.429366
45.154472	283.183942	0.130123	-0.023007	1.441152
46.537694	294.240053	0.135128	-0.023269	1.452844
47.522068	305.364050	0.140132	-0.023457	1.464365
49.130706	316.326180	0.145137	-0.023761	1.475859
49.935713	327.527979	0.150142	-0.023915	1.487213
51.434346	338.478839	0.155146	-0.024199	1.498480
52.474659	349.598065	0.160151	-0.024397	1.509666
53.694903	360.665169	0.165156	-0.024629	1.520780
54.616102	371.750499	0.170161	-0.024804	1.531729
55.891238	382.769385	0.175165	-0.025046	1.542656
56.929633	393.814704	0.180170	-0.025244	1.553451
58.025333	404.894726	0.185175	-0.025452	1.564222
59.096408	415.958821	0.190180	-0.025656	1.574896
60.389976	426.958004	0.195184	-0.025901	1.585511
61.412951	438.075506	0.200189	-0.026096	1.596075
62.661374	449.075513	0.205194	-0.026333	1.606535
63.624021	460.203514	0.210198	-0.026516	1.616950
64.637865	471.217526	0.215203	-0.026709	1.627213
65.731156	482.260640	0.220208	-0.026917	1.637461
66.728810	493.328612	0.225213	-0.027107	1.647637
67.834117	504.349063	0.230217	-0.027317	1.657742
68.917601	515.397338	0.235222	-0.027523	1.667802
69.768079	526.488673	0.240227	-0.027686	1.677768
70.944132	537.483524	0.245232	-0.027909	1.687690
72.004290	548.556592	0.250236	-0.028111	1.697586
72.954995	559.583270	0.255241	-0.028292	1.707351
73.970707	570.649414	0.260246	-0.028485	1.717113
74.844011	581.710712	0.265250	-0.028652	1.726773
75.951932	592.710545	0.270255	-0.028862	1.736396
76.966949	603.761071	0.275260	-0.029056	1.745981
77.824957	614.840008	0.280265	-0.029219	1.755491
78.990735	625.839241	0.285269	-0.029441	1.764973
79.761559	636.949376	0.290274	-0.029588	1.774381
81.020757	647.891002	0.295279	-0.029827	1.783741
81.823557	659.011587	0.300283	-0.029981	1.793067
82.641646	670.041519	0.305288	-0.030137	1.802275
83.546060	681.089976	0.310293	-0.030309	1.811475
84.488397	692.114186	0.315298	-0.030489	1.820619
85.518019	703.120471	0.320302	-0.030685	1.829728
86.729746	714.159475	0.325307	-0.030915	1.838867
87.469006	725.242854	0.330312	-0.031056	1.847866
88.613603	736.246498	0.335317	-0.031274	1.856868
89.464206	747.313174	0.340321	-0.031436	1.865796
90.420077	758.345743	0.345326	-0.031618	1.874684
90.839998	769.429893	0.350331	-0.031700	1.883423
92.023095	780.395555	0.355335	-0.031925	1.892236
92.985976	791.435155	0.360340	-0.032108	1.901006
93.770484	802.499144	0.365345	-0.032258	1.909706
94.807765	813.512076	0.370350	-0.032455	1.918394
95.598345	824.584810	0.375354	-0.032606	1.927023
96.185978	835.636658	0.380359	-0.032719	1.935545
97.330113	846.577009	0.385364	-0.032937	1.944089
98.134263	857.669506	0.390369	-0.033090	1.952622
98.709004	868.748544	0.395373	-0.033201	1.961048
99.287551	879.781176	0.400378	-0.033312	1.969405
100.317432	890.738293	0.405383	-0.033508	1.977785
101.116011	901.797061	0.410387	-0.033661	1.986145
102.035129	912.834268	0.415392	-0.033836	1.994485
102.975350	923.856725	0.420397	-0.034015	2.002784
103.703431	934.899935	0.425402	-0.034154	2.011010
104.437214	945.957290	0.430406	-0.034295	2.019215
105.520288	956.932128	0.435411	-0.034501	2.027412
106.380183	967.999905	0.440416	-0.034665	2.035588
106.919722	979.070273	0.445421	-0.034769	2.043655
107.524242	990.091355	0.450425	-0.034885	2.051670
108.202755	1001.099533	0.455430	-0.035015	2.059662
108.956817	1012.125764	0.460435	-0.035159	2.067655
109.520634	1023.209025	0.465439	-0.035268	2.075610
110.246642	1034.188891	0.470444	-0.035407	2.083502
110.985298	1045.227579	0.475449	-0.035548	2.091407
111.942873	1056.249226	0.480454	-0.035731	2.099322
112.799825	1067.261906	0.485458	-0.035894	2.107178
113.619471	1078.313280	0.490463	-0.036051	2.115021
114.457288	1089.346186	0.495468	-0.036211	2.122827
115.270715	1100.363106	0.500472	-0.036366	2.130588
115.911726	1111.430180	0.505477	-0.036489	2.138314
116.487433	1122.457230	0.510482	-0.036600	2.145970
116.937173	1133.502053	0.515487	-0.036687	2.153581
117.546550	1144.487056	0.520491	-0.036804	2.161162
118.515085	1155.517268	0.525496	-0.036988	2.168828
119.039606	1166.571788	0.530501	-0.037090	2.176382
119.877129	1177.571691	0.535506	-0.037249	2.183944
120.492531	1188.621042	0.540510	-0.037368	2.191463
121.127837	1199.637663	0.545515	-0.037490	2.198938
121.828243	1210.662499	0.550520	-0.037624	2.206408
122.422758	1221.729860	0.555524	-0.037738	2.213857
123.079333	1232.695082	0.560529	-0.037864	2.221227
124.080055	1243.713736	0.565534	-0.038054	2.228684
124.757603	1254.782701	0.570539	-0.038184	2.236077
125.403566	1265.811136	0.575543	-0.038308	2.243412
126.356339	1276.778105	0.580548	-0.038490	2.250750
127.288822	1287.853216	0.585553	-0.038667	2.258130
127.716240	1298.910145	0.590558	-0.038750	2.265364
128.378413	1309.898498	0.595562	-0.038877	2.272581
129.124673	1320.927228	0.600567	-0.039020	2.279820
129.817687	1331.958451	0.605572	-0.039153	2.287025
130.454865	1342.985879	0.610576	-0.039275	2.294193
130.857781	1354.042494	0.615581	-0.039353	2.301308
131.205267	1365.042911	0.620586	-0.039421	2.308353
132.080982	1376.041258	0.625591	-0.039588	2.315486
132.797621	1387.077388	0.630595	-0.039726	2.322587
133.429359	1398.128831	0.635600	-0.039847	2.329659
133.876343	1409.144023	0.640605	-0.039934	2.336648
134.646402	1420.173826	0.645610	-0.040081	2.343692
135.228510	1431.167850	0.650614	-0.040193	2.350653
136.019666	1442.226812	0.655619	-0.040344	2.357677
136.431515	1453.231766	0.660624	-0.040424	2.364569
137.199510	1464.249766	0.665628	-0.040571	2.371521
137.738615	1475.294936	0.670633	-0.040675	2.378422
138.294490	1486.309894	0.675638	-0.040782	2.385289
138.802177	1497.354660	0.680643	-0.040880	2.392144
139.362988	1508.362376	0.685647	-0.040988	2.398968
140.052360	1519.375994	0.690652	-0.041120	2.405801
140.696890	1530.416337	0.695657	-0.041243	2.412621
141.299599	1541.420915	0.700661	-0.041359	2.419393
142.233720	1552.386738	0.705666	-0.041537	2.426187
143.088909	1563.474807	0.710671	-0.041700	2.433020
143.762556	1574.486009	0.715676	-0.041830	2.439752
144.121238	1585.542425	0.720680	-0.041900	2.446431
144.993730	1596.539401	0.725685	-0.042066	2.453156
145.615410	1607.549256	0.730690	-0.042185	2.459821
146.095204	1618.612957	0.735695	-0.042278	2.466473
146.541577	1629.648330	0.740699	-0.042365	2.473083
146.909413	1640.643226	0.745704	-0.042436	2.479637
147.551627	1651.655873	0.750709	-0.042560	2.486236
148.075482	1662.703331	0.755713	-0.042661	2.492815
148.662759	1673.699766	0.760718	-0.042774	2.499359
149.412453	1684.727316	0.765723	-0.042917	2.505935
149.978355	1695.747235	0.770728	-0.043026	2.512454
150.827271	1706.761791	0.775732	-0.043188	2.519006
151.135706	1717.813934	0.780737	-0.043248	2.525461
151.938993	1728.811485	0.785742	-0.043402	2.531961
152.411435	1739.851904	0.790747	-0.043493	2.538407
152.845618	1750.865106	0.795751	-0.043578	2.544813
153.509310	1761.894077	0.800756	-0.043705	2.551255
154.265960	1772.890748	0.805761	-0.043849	2.557679
154.575971	1783.949895	0.810765	-0.043910	2.564041
155.443207	1794.931201	0.815770	-0.044076	2.570444
155.784897	1806.058920	0.820775	-0.044143	2.576818
156.330804	1817.002744	0.825780	-0.044248	2.583109
156.987934	1827.980984	0.830784	-0.044374	2.589425
157.921554	1839.011895	0.835789	-0.044552	2.595804
158.323002	1850.067630	0.840794	-0.044630	2.602086
158.948719	1861.091756	0.845799	-0.044750	2.608375
159.450475	1872.100459	0.850803	-0.044847	2.614618
160.055406	1883.115278	0.855808	-0.044963	2.620867
160.676734	1894.135684	0.860813	-0.045082	2.627108
161.224259	1905.173701	0.865817	-0.045188	2.633330
161.752995	1916.186110	0.870822	-0.045290	2.639520
162.153610	1927.223668	0.875827	-0.045368	2.645687
162.917307	1938.218377	0.880832	-0.045514	2.651879
163.703154	1949.252672	0.885836	-0.045664	2.658082
164.092342	1960.260651	0.890841	-0.045740	2.664187
164.693467	1971.303207	0.895846	-0.045855	2.670334
165.291904	1982.294416	0.900850	-0.045970	2.676438
165.831262	1993.354866	0.905855	-0.046074	2.682555
166.346973	2004.348670	0.910860	-0.046174	2.688618
166.900655	2015.369809	0.915865	-0.046280	2.694689
167.491298	2026.376552	0.920869	-0.046394	2.700744
168.040467	2037.429365	0.925874	-0.046500	2.706803
168.440883	2048.440166	0.930879	-0.046577	2.712800
169.072394	2059.427579	0.935884	-0.046699	2.718811
169.569012	2070.448706	0.940888	-0.046795	2.724804
170.130301	2081.477932	0.945893	-0.046903	2.730799
170.566099	2092.488926	0.950898	-0.046987	2.736749
171.200092	2103.525689	0.955902	-0.047109	2.742733
171.497741	2114.536270	0.960907	-0.047167	2.748635
171.876367	2125.569718	0.965912	-0.047241	2.754549
172.380928	2136.560822	0.970917	-0.047339	2.760448
172.956230	2147.609619	0.975921	-0.047449	2.766377
173.478966	2158.617983	0.980926	-0.047550	2.772263
173.990945	2169.641865	0.985931	-0.047649	2.778143
174.279327	2180.661096	0.990936	-0.047706	2.783972
174.947273	2191.658495	0.995940	-0.047834	2.789838
175.489757	2202.694350	1.000945	-0.047938	2.795692
176.042525	2213.718445	1.005950	-0.048045	2.801529
176.381940	2224.757933	1.010954	-0.048111	2.807327
176.989568	2235.738713	1.015959	-0.048228	2.813126
177.449883	2246.768016	1.020964	-0.048317	2.818914
178.132728	2257.782515	1.025969	-0.048448	2.824718
178.794243	2268.787123	1.030973	-0.048575	2.830502
179.416907	2279.839185	1.035978	-0.048694	2.836292
179.625175	2290.871572	1.040983	-0.048736	2.841994
180.059756	2301.879141	1.045988	-0.048820	2.847707
180.634002	2312.860825	1.050992	-0.048931	2.853418
181.155503	2323.918756	1.055997	-0.049031	2.859148
181.666477	2334.916288	1.061002	-0.049130	2.864834
182.280327	2345.949524	1.066006	-0.049248	2.870542
182.646699	2356.969993	1.071011	-0.049319	2.876194
183.065736	2368.014932	1.076016	-0.049401	2.881856
183.562912	2378.987705	1.081021	-0.049497	2.887482
184.076625	2390.037467	1.086025	-0.049596	2.893138
184.734566	2401.011387	1.091030	-0.049722	2.898767
185.254133	2412.057764	1.096035	-0.049822	2.904400
185.767756	2423.076940	1.101039	-0.049921	2.910007
186.336151	2434.099402	1.106044	-0.050031	2.915614
186.702210	2445.120971	1.111049	-0.050102	2.921178
187.313913	2456.126189	1.116054	-0.050220	2.926761
187.789589	2467.158714	1.121058	-0.050312	2.932326
188.093916	2478.191223	1.126063	-0.050372	2.937854
188.701901	2489.157758	1.131068	-0.050488	2.943385
189.319297	2500.222303	1.136073	-0.050607	2.948955
189.859319	2511.213024	1.141077	-0.050711	2.954467
190.232486	2522.265877	1.146082	-0.050784	2.959974
190.457023	2533.282478	1.151087	-0.050829	2.965430
190.939833	2544.306487	1.156091	-0.050922	2.970919
191.497709	2555.281633	1.161096	-0.051029	2.976384
192.091368	2566.308291	1.166101	-0.051143	2.981870
192.730113	2577.329561	1.171106	-0.051266	2.987349
193.094946	2588.374125	1.176110	-0.051337	2.992790
193.368452	2599.378080	1.181115	-0.051391	2.998187
193.895053	2610.393678	1.186120	-0.051493	3.003617
194.353009	2621.417545	1.191125	-0.051581	3.009031
195.026226	2632.400484	1.196129	-0.051711	3.014447
195.415569	2643.468898	1.201134	-0.051786	3.019853
195.833903	2654.475076	1.206139	-0.051868	3.025224
196.112659	2665.500175	1.211143	-0.051923	3.030574
196.529680	2676.516128	1.216148	-0.052004	3.035929
197.195666	2687.501163	1.221153	-0.052131	3.041296
197.628238	2698.553080	1.226158	-0.052215	3.046652
197.898966	2709.554844	1.231162	-0.052269	3.051952
198.149285	2720.596502	1.236167	-0.052318	3.057259
198.664187	2731.572430	1.241172	-0.052418	3.062562
199.379689	2742.602977	1.246177	-0.052555	3.067910
200.062749	2753.593433	1.251181	-0.052686	3.073225
200.714344	2764.628808	1.256186	-0.052811	3.078548
201.054124	2775.686505	1.261191	-0.052877	3.083828
201.601914	2786.680836	1.266195	-0.052983	3.089099
202.170328	2797.689108	1.271200	-0.053092	3.094369
202.633719	2808.712589	1.276205	-0.053182	3.099623
203.239462	2819.742549	1.281210	-0.053298	3.104891
203.520599	2830.775646	1.286214	-0.053354	3.110106
203.710981	2841.768223	1.291219	-0.053392	3.115281
204.133872	2852.788427	1.296224	-0.053474	3.120493
204.770614	2863.790788	1.301228	-0.053596	3.125716
205.242319	2874.857320	1.306233	-0.053687	3.130938
205.553439	2885.825376	1.311238	-0.053749	3.136083
205.919986	2896.871555	1.316243	-0.053820	3.141264
206.052477	2907.899738	1.321247	-0.053848	3.146396
206.676012	2918.882828	1.326252	-0.053967	3.151565
207.017999	2929.903294	1.331257	-0.054034	3.156705
207.605203	2940.915902	1.336262	-0.054147	3.161865
207.975752	2951.962798	1.341266	-0.054219	3.167004
208.320843	2962.976338	1.346271	-0.054287	3.172116
208.747201	2973.969393	1.351276	-0.054370	3.177221
209.407814	2984.967698	1.356280	-0.054496	3.182351
209.993665	2996.020487	1.361285	-0.054609	3.187487
210.502662	3007.038797	1.366290	-0.054707	3.192590
210.845029	3018.047530	1.371295	-0.054774	3.197657
211.311942	3029.081243	1.376299	-0.054865	3.202745
211.920965	3040.068527	1.381304	-0.054982	3.207821
212.465079	3051.109805	1.386309	-0.055086	3.212906
212.597184	3062.135046	1.391314	-0.055114	3.217921
213.185358	3073.122051	1.396318	-0.055227	3.222970
213.470929	3084.163591	1.401323	-0.055283	3.227997
213.910054	3095.174983	1.406328	-0.055368	3.233022
214.264559	3106.185978	1.411332	-0.055438	3.238028
214.862111	3117.197365	1.416337	-0.055553	3.243058
215.334050	3128.224931	1.421342	-0.055644	3.248071
215.750814	3139.238448	1.426347	-0.055725	3.253063
216.053929	3150.264164	1.431351	-0.055784	3.258038
216.461595	3161.257561	1.436356	-0.055864	3.263004
217.096308	3172.280937	1.441361	-0.055985	3.268005
217.468737	3183.321706	1.446366	-0.056058	3.272972
217.860761	3194.328395	1.451370	-0.056134	3.277920
218.161277	3205.352864	1.456375	-0.056193	3.282855
218.616885	3216.364168	1.461380	-0.056282	3.287798
219.101396	3227.379343	1.466384	-0.056375	3.292738
219.416265	3238.382735	1.471389	-0.056437	3.297643
219.951325	3249.409676	1.476394	-0.056540	3.302580
220.483465	3260.424012	1.481399	-0.056643	3.307503
220.883556	3271.444435	1.486403	-0.056721	3.312405
221.349295	3282.441687	1.491408	-0.056811	3.317297
222.023976	3293.477009	1.496413	-0.056940	3.322225
222.645960	3304.472987	1.501417	-0.057059	3.327122
223.001333	3315.515299	1.506422	-0.057129	3.331998
223.195977	3326.548657	1.511427	-0.057168	3.336844
223.577267	3337.533532	1.516432	-0.057242	3.341684
223.868928	3348.570671	1.521436	-0.057300	3.346529
224.572237	3359.562298	1.526441	-0.057435	3.351398
224.808739	3370.613164	1.531446	-0.057482	3.356228
225.011882	3381.608881	1.536451	-0.057522	3.361023
225.459287	3392.650164	1.541455	-0.057609	3.365860
225.930290	3403.637612	1.546460	-0.057700	3.370671
226.373563	3414.657646	1.551465	-0.057786	3.375484
226.799538	3425.666081	1.556469	-0.057869	3.380284
227.159399	3436.695965	1.561474	-0.057939	3.385078
227.532971	3447.717676	1.566479	-0.058012	3.389864
227.769945	3458.726432	1.571484	-0.058059	3.394620
228.425019	3469.745307	1.576488	-0.058185	3.399424
229.054749	3480.742950	1.581493	-0.058306	3.404210
229.355238	3491.788147	1.586498	-0.058365	3.408969
229.565922	3502.801549	1.591503	-0.058407	3.413698
229.947885	3513.788849	1.596507	-0.058481	3.418429
230.365131	3524.812051	1.601512	-0.058562	3.423173
231.018270	3535.839372	1.606517	-0.058688	3.427939
231.362995	3546.853805	1.611521	-0.058755	3.432658
231.836952	3557.888593	1.616526	-0.058847	3.437393
232.024620	3568.888845	1.621531	-0.058885	3.442074
232.586654	3579.904618	1.626536	-0.058993	3.446798
233.044296	3590.910750	1.631540	-0.059082	3.451500
233.646096	3601.934949	1.636545	-0.059197	3.456220
234.019469	3612.949945	1.641550	-0.059270	3.460902
234.251859	3624.004003	1.646555	-0.059316	3.465579
234.742354	3634.957171	1.651559	-0.059411	3.470236
235.215621	3646.001724	1.656564	-0.059503	3.474924
235.578055	3657.032263	1.661569	-0.059573	3.479586
235.855746	3668.057014	1.666573	-0.059628	3.484230
236.130088	3679.058017	1.671578	-0.059682	3.488857
236.439784	3690.079976	1.676583	-0.059743	3.493491
236.874140	3701.080691	1.681588	-0.059827	3.498124
237.601808	3712.072973	1.686592	-0.059967	3.502781
238.261693	3723.111000	1.691597	-0.060093	3.507442
238.513258	3734.134321	1.696602	-0.060143	3.512045
238.786918	3745.159568	1.701606	-0.060197	3.516646
239.283627	3756.170831	1.706611	-0.060293	3.521259
239.815308	3767.178473	1.711616	-0.060396	3.525869
240.210697	3778.196207	1.716621	-0.060473	3.530461
240.539677	3789.203382	1.721625	-0.060537	3.535036
241.092952	3800.237502	1.726630	-0.060644	3.539640
241.422260	3811.252602	1.731635	-0.060708	3.544206
241.675808	3822.270640	1.736640	-0.060758	3.548759
242.214263	3833.266116	1.741644	-0.060862	3.553328
242.699610	3844.279056	1.746649	-0.060956	3.557893
243.203936	3855.290042	1.751654	-0.061053	3.562452
243.536671	3866.347793	1.756658	-0.061118	3.567006
243.870310	3877.331693	1.761663	-0.061184	3.571525
244.489388	3888.363145	1.766668	-0.061303	3.576087
244.756627	3899.368090	1.771673	-0.061356	3.580595
245.151425	3910.400780	1.776677	-0.061432	3.585122
245.155867	3921.418642	1.781682	-0.061436	3.589596
245.539297	3932.417198	1.786687	-0.061511	3.594096
245.724168	3943.448730	1.791692	-0.061548	3.598583
246.209920	3954.469140	1.796696	-0.061642	3.603092
246.710162	3965.482937	1.801701	-0.061738	3.607595
247.105493	3976.465955	1.806706	-0.061815	3.612068
247.317422	3987.501413	1.811710	-0.061858	3.616536
247.712418	3998.521713	1.816715	-0.061935	3.621013
248.378523	4009.495280	1.821720	-0.062062	3.625494
249.006520	4020.545224	1.826725	-0.062183	3.629996
249.391975	4031.565065	1.831729	-0.062258	3.634454
249.685182	4042.592644	1.836734	-0.062316	3.638901
249.877914	4053.597126	1.841739	-0.062355	3.643322
250.391745	4064.636377	1.846744	-0.062454	3.647785
250.781782	4075.592104	1.851748	-0.062530	3.652196
251.213138	4086.639975	1.856753	-0.062613	3.656643
251.393936	4097.684868	1.861758	-0.062650	3.661058
251.735878	4108.739613	1.866762	-0.062717	3.665487
251.865862	4119.736729	1.871767	-0.062744	3.669866
252.437484	4130.737396	1.876772	-0.062854	3.674287
252.792897	4141.768752	1.881777	-0.062924	3.678693
253.200003	4152.812032	1.886781	-0.063003	3.683103
253.234900	4163.840811	1.891786	-0.063012	3.687464
253.398593	4174.805669	1.896791	-0.063045	3.691808
253.764868	4185.821350	1.901795	-0.063117	3.696187
254.419750	4196.828748	1.906800	-0.063242	3.700587
254.802611	4207.864671	1.911805	-0.063317	3.704965
255.197697	4218.875826	1.916810	-0.063394	3.709330
255.397121	4229.891935	1.921814	-0.063434	3.713671
256.009966	4240.898097	1.926819	-0.063552	3.718045
256.583289	4251.929549	1.931824	-0.063662	3.722420
257.038293	4262.945022	1.936829	-0.063750	3.726772
257.391770	4273.927078	1.941833	-0.063819	3.731095
257.507598	4284.993676	1.946838	-0.063844	3.735422
257.794822	4295.984292	1.951843	-0.063900	3.739732
258.336482	4306.994850	1.956847	-0.064005	3.744069
258.690382	4318.010476	1.961852	-0.064074	3.748385
