Wed Nov 23 18:47:16 2022

Number of Points = 2200
Depth (nm)	Load (µN)	Time (s)	Depth (V)	Load (V)
-3.231389	-1.328750	0.000000	0.004587	1.041662
0.000000	6.892084	0.005005	0.003979	1.054860
1.538394	16.869165	0.010009	0.003687	1.069449
2.961396	27.746989	0.015014	0.003418	1.085002
4.720571	38.727560	0.020019	0.003085	1.100638
6.367119	49.916750	0.025024	0.002773	1.116273
8.247610	60.919333	0.030028	0.002418	1.131560
10.906185	71.925986	0.035033	0.001916	1.147014
13.018296	83.122609	0.040038	0.001517	1.162247
15.208875	94.285656	0.045043	0.001103	1.177274
16.552999	105.550046	0.050047	0.000848	1.191854
18.159956	116.658651	0.055052	0.000544	1.206183
19.478314	127.828922	0.060057	0.000294	1.220290
20.570796	138.976153	0.065061	0.000086	1.234110
21.869219	150.026789	0.070066	-0.000160	1.247750
23.126018	161.167937	0.075071	-0.000399	1.261330
24.378315	172.228708	0.080076	-0.000637	1.274670
25.569699	183.349686	0.085080	-0.000863	1.287914
26.748375	194.494483	0.090085	-0.001087	1.301044
27.816094	205.565408	0.095090	-0.001290	1.313914
28.679868	216.683067	0.100094	-0.001455	1.326628
29.564271	227.756256	0.105099	-0.001624	1.339181
30.665867	238.780720	0.110104	-0.001833	1.351649
31.658964	249.898807	0.115109	-0.002022	1.364061
32.862856	260.906507	0.120113	-0.002251	1.376325
34.242418	272.002861	0.125118	-0.002512	1.388640
35.125380	283.116373	0.130123	-0.002681	1.400675
36.039479	294.179474	0.135128	-0.002855	1.412567
37.005736	305.290901	0.140132	-0.003039	1.424429
38.094080	316.305281	0.145137	-0.003246	1.436137
38.873732	327.426715	0.150142	-0.003395	1.447746
40.092525	338.425885	0.155146	-0.003626	1.459298
40.999723	349.524790	0.160151	-0.003799	1.470747
41.763188	360.638541	0.165156	-0.003945	1.482070
42.563429	371.664395	0.170161	-0.004098	1.493233
43.529305	382.734480	0.175165	-0.004282	1.504414
44.312783	393.795607	0.180170	-0.004432	1.515440
45.315697	404.820039	0.185175	-0.004623	1.526426
46.171712	415.936641	0.190180	-0.004786	1.537371
47.193278	426.929827	0.195184	-0.004981	1.548178
47.982964	438.017710	0.200189	-0.005132	1.558919
49.268211	448.993225	0.205194	-0.005376	1.569648
50.229032	460.118832	0.210198	-0.005559	1.580335
51.243733	471.155681	0.215203	-0.005752	1.590885
51.910137	482.267377	0.220208	-0.005879	1.601320
53.074306	493.220129	0.225213	-0.006101	1.611704
54.131860	504.349908	0.230217	-0.006302	1.622147
54.938845	515.375336	0.235222	-0.006456	1.632348
55.677274	526.457227	0.240227	-0.006597	1.642514
56.633114	537.449384	0.245232	-0.006779	1.652606
57.469258	548.526249	0.250236	-0.006939	1.662674
58.317721	559.573819	0.255241	-0.007101	1.672659
59.095482	570.640430	0.260246	-0.007250	1.682579
59.929403	581.668240	0.265250	-0.007409	1.692424
60.823713	592.695223	0.270255	-0.007579	1.702229
61.875488	603.733304	0.275260	-0.007779	1.712035
62.650904	614.816118	0.280265	-0.007928	1.721739
63.457755	625.836419	0.285269	-0.008082	1.731345
64.330925	636.896883	0.290274	-0.008248	1.740952
65.266142	647.916001	0.295279	-0.008427	1.750488
66.160528	658.959796	0.300283	-0.008597	1.759982
66.903709	670.036668	0.305288	-0.008739	1.769407
67.740681	681.067352	0.310293	-0.008899	1.778771
68.273214	692.125599	0.315298	-0.009002	1.788020
69.257948	703.114334	0.320302	-0.009189	1.797295
70.165480	714.166295	0.325307	-0.009362	1.806550
70.701278	725.272793	0.330312	-0.009466	1.815697
71.460980	736.253169	0.335317	-0.009611	1.824759
72.239444	747.296884	0.340321	-0.009760	1.833833
72.911261	758.357780	0.345326	-0.009888	1.842845
73.550813	769.412595	0.350331	-0.010011	1.851799
74.512880	780.386906	0.355335	-0.010194	1.860735
75.067573	791.479898	0.360340	-0.010301	1.869610
75.989871	802.480823	0.365345	-0.010477	1.878470
76.410919	813.582788	0.370350	-0.010559	1.887232
77.351736	824.532702	0.375354	-0.010738	1.895975
77.923212	835.611977	0.380359	-0.010848	1.904678
78.781216	846.619688	0.385364	-0.011012	1.913363
79.455507	857.694192	0.390369	-0.011141	1.922010
80.302343	868.702095	0.395373	-0.011303	1.930613
80.945769	879.751966	0.400378	-0.011426	1.939157
81.471809	890.797870	0.405383	-0.011528	1.947628
82.125783	901.823373	0.410387	-0.011653	1.956081
82.832327	912.846357	0.415392	-0.011788	1.964509
83.627854	923.853650	0.420397	-0.011940	1.972912
84.695745	934.873388	0.425402	-0.012143	1.981357
85.204093	945.969638	0.430406	-0.012242	1.989681
85.916821	956.969862	0.435411	-0.012378	1.997951
86.507568	968.026449	0.440416	-0.012492	2.006196
87.070985	979.092615	0.445421	-0.012600	2.014408
87.314976	990.117822	0.450425	-0.012649	2.022477
87.915955	1001.123400	0.455430	-0.012764	2.030589
88.666317	1012.126869	0.460435	-0.012908	2.038703
89.371748	1023.165587	0.465439	-0.013043	2.046799
90.043010	1034.240122	0.470444	-0.013171	2.054879
90.650560	1045.216430	0.475449	-0.013288	2.062843
91.604915	1056.250313	0.480454	-0.013470	2.070900
92.387702	1067.292679	0.485458	-0.013620	2.078891
92.802044	1078.374367	0.490463	-0.013700	2.086790
93.618448	1089.355950	0.495468	-0.013856	2.094685
94.045425	1100.422315	0.500472	-0.013939	2.102516
94.518866	1111.458995	0.505477	-0.014030	2.110308
94.849945	1122.475957	0.510482	-0.014095	2.118025
95.647039	1133.477899	0.515487	-0.014247	2.125812
96.261846	1144.519733	0.520491	-0.014366	2.133555
97.024573	1155.506577	0.525496	-0.014511	2.141267
97.484943	1166.616808	0.530501	-0.014601	2.148965
97.893700	1177.611355	0.535506	-0.014680	2.156545
98.467211	1188.637982	0.540510	-0.014790	2.164158
99.159382	1199.653488	0.545515	-0.014923	2.171763
99.653201	1210.707640	0.550520	-0.015018	2.179323
100.396229	1221.688292	0.555524	-0.015160	2.186863
100.872122	1232.772568	0.560529	-0.015253	2.194386
101.346345	1243.772944	0.565534	-0.015344	2.201827
102.137546	1254.773587	0.570539	-0.015495	2.209314
102.739405	1265.836030	0.575543	-0.015611	2.216774
103.292138	1276.847886	0.580548	-0.015718	2.224164
103.654625	1287.912032	0.585553	-0.015788	2.231522
103.992744	1298.932799	0.590558	-0.015854	2.238822
104.647637	1309.932243	0.595562	-0.015980	2.246154
105.016148	1321.006364	0.600567	-0.016052	2.253447
105.761771	1331.956330	0.605572	-0.016195	2.260719
106.176598	1343.035088	0.610576	-0.016275	2.267978
106.543967	1354.063632	0.615581	-0.016347	2.275172
107.010830	1365.056071	0.620586	-0.016437	2.282341
107.674947	1376.079026	0.625591	-0.016564	2.289549
108.361545	1387.106110	0.630595	-0.016696	2.296741
108.963908	1398.146147	0.635600	-0.016812	2.303901
109.118347	1409.199461	0.640605	-0.016844	2.310953
109.891047	1420.148673	0.645610	-0.016991	2.318047
110.459523	1431.223313	0.650614	-0.017101	2.325156
111.267073	1442.206218	0.655619	-0.017255	2.332235
111.623653	1453.309039	0.660624	-0.017325	2.339273
112.089060	1464.301839	0.665628	-0.017415	2.346245
112.364889	1475.348718	0.670633	-0.017469	2.353190
112.689422	1486.356498	0.675638	-0.017533	2.360100
113.118597	1497.363238	0.680643	-0.017616	2.367011
113.683116	1508.397090	0.685647	-0.017725	2.373945
114.217986	1519.405639	0.690652	-0.017828	2.380838
114.815513	1530.431621	0.695657	-0.017943	2.387734
114.987088	1541.521488	0.700661	-0.017977	2.394564
115.429274	1552.478257	0.705666	-0.018063	2.401346
116.155150	1563.499155	0.710671	-0.018202	2.408206
116.715112	1574.524231	0.715676	-0.018310	2.415015
117.032631	1585.582401	0.720680	-0.018372	2.421776
117.493762	1596.594600	0.725685	-0.018461	2.428520
117.914230	1607.609134	0.730690	-0.018543	2.435238
118.248738	1618.643049	0.735695	-0.018609	2.441932
118.700991	1629.645235	0.740699	-0.018696	2.448611
119.398340	1640.652216	0.745704	-0.018830	2.455323
119.699433	1651.722394	0.750709	-0.018889	2.461978
120.208564	1662.722494	0.755713	-0.018987	2.468612
120.750787	1673.725011	0.760718	-0.019092	2.475237
121.261585	1684.766717	0.765723	-0.019190	2.481861
121.828637	1695.782450	0.770728	-0.019299	2.488462
122.298262	1706.839728	0.775732	-0.019390	2.495052
122.618585	1717.836784	0.780737	-0.019453	2.501560
123.069717	1728.870754	0.785742	-0.019540	2.508098
123.359642	1739.898534	0.790747	-0.019598	2.514585
123.892248	1750.889229	0.795751	-0.019700	2.521078
124.310747	1761.927639	0.800756	-0.019782	2.527562
124.667127	1772.985103	0.805761	-0.019851	2.534028
124.973716	1783.948779	0.810765	-0.019911	2.540414
125.386348	1795.010757	0.815770	-0.019992	2.546860
126.036936	1806.006918	0.820775	-0.020116	2.553296
126.519846	1817.009106	0.825780	-0.020210	2.559688
127.063926	1828.057254	0.830784	-0.020315	2.566102
127.290772	1839.116024	0.835789	-0.020360	2.572447
127.531987	1850.186536	0.840794	-0.020408	2.578786
127.843005	1861.118384	0.845799	-0.020469	2.585043
128.377429	1872.149939	0.850803	-0.020572	2.591382
128.961261	1883.121971	0.855808	-0.020684	2.597681
129.483694	1894.192726	0.860813	-0.020785	2.604009
129.804500	1905.238222	0.865817	-0.020848	2.610271
130.186533	1916.211623	0.870822	-0.020922	2.616488
130.664907	1927.257758	0.875827	-0.021015	2.622749
131.256105	1938.247855	0.880832	-0.021128	2.628983
131.574569	1949.294764	0.885836	-0.021191	2.635185
132.085337	1960.310539	0.890841	-0.021289	2.641390
132.331910	1971.363882	0.895846	-0.021338	2.647554
132.734720	1982.363090	0.900850	-0.021417	2.653701
133.051402	1993.371468	0.905855	-0.021479	2.659824
133.493986	2004.391253	0.910860	-0.021565	2.665961
133.991381	2015.415080	0.915865	-0.021661	2.672096
134.482824	2026.437661	0.920869	-0.021756	2.678214
134.612642	2037.482092	0.925874	-0.021783	2.684268
134.924685	2048.479089	0.930879	-0.021844	2.690314
135.451439	2059.466734	0.935884	-0.021946	2.696378
135.829263	2070.497429	0.940888	-0.022019	2.702425
136.243269	2081.513617	0.945893	-0.022100	2.708458
136.530367	2092.550329	0.950898	-0.022156	2.714467
136.707060	2103.583401	0.955902	-0.022192	2.720441
137.131857	2114.568149	0.960907	-0.022275	2.726419
137.668269	2125.604813	0.965912	-0.022378	2.732429
138.137249	2136.598883	0.970917	-0.022469	2.738393
138.527824	2147.639773	0.975921	-0.022545	2.744355
138.698863	2158.673106	0.980926	-0.022580	2.750263
139.055874	2169.675678	0.985931	-0.022649	2.756174
139.351993	2180.712536	0.990936	-0.022708	2.762079
139.685765	2191.723844	0.995940	-0.022773	2.767965
140.291810	2202.711839	1.000945	-0.022889	2.773870
140.459490	2213.778386	1.005950	-0.022924	2.779732
140.766411	2224.766295	1.010954	-0.022984	2.785564
141.046078	2235.839675	1.015959	-0.023039	2.791423
141.339640	2246.814834	1.020964	-0.023097	2.797221
141.862125	2257.816682	1.025969	-0.023198	2.803058
142.079621	2268.878730	1.030973	-0.023241	2.808865
142.463466	2279.887711	1.035978	-0.023316	2.814658
142.784232	2290.874441	1.040983	-0.023379	2.820418
143.314724	2301.906461	1.045988	-0.023481	2.826224
143.943059	2312.935764	1.050992	-0.023602	2.832031
144.372224	2323.919928	1.055997	-0.023685	2.837772
144.512978	2334.991077	1.061002	-0.023714	2.843499
144.784754	2346.025453	1.066006	-0.023768	2.849217
144.969637	2356.998908	1.071011	-0.023805	2.854879
145.407543	2368.037839	1.076016	-0.023890	2.860602
145.802016	2379.030243	1.081021	-0.023967	2.866284
146.363029	2390.061718	1.086025	-0.024075	2.872000
146.587329	2401.080564	1.091030	-0.024120	2.877645
147.061793	2412.104809	1.096035	-0.024211	2.883321
147.346789	2423.129950	1.101039	-0.024268	2.888957
147.753383	2434.176753	1.106044	-0.024347	2.894612
148.087333	2445.161474	1.111049	-0.024412	2.900213
148.363489	2456.176197	1.116054	-0.024467	2.905809
148.499252	2467.226804	1.121058	-0.024495	2.911391
148.931292	2478.209601	1.126063	-0.024579	2.916973
149.213149	2489.239165	1.131068	-0.024634	2.922545
149.636847	2500.248148	1.136073	-0.024716	2.928118
149.932363	2511.279440	1.141077	-0.024775	2.933672
150.194440	2522.296380	1.146082	-0.024827	2.939203
150.360810	2533.310690	1.151087	-0.024861	2.944708
150.842090	2544.332038	1.156091	-0.024954	2.950253
151.177398	2555.340757	1.161096	-0.025019	2.955759
151.707737	2566.360582	1.166101	-0.025121	2.961290
151.935053	2577.388906	1.171106	-0.025167	2.966770
152.198687	2588.426901	1.176110	-0.025219	2.972249
152.364393	2599.412882	1.181115	-0.025253	2.977678
152.870752	2610.430839	1.186120	-0.025351	2.983164
153.353965	2621.444754	1.191125	-0.025444	2.988634
153.646662	2632.484410	1.196129	-0.025502	2.994078
153.964257	2643.480049	1.201134	-0.025564	2.999494
154.231090	2654.527853	1.206139	-0.025617	3.004918
154.703964	2665.525681	1.211143	-0.025708	3.010339
154.779466	2676.575619	1.216148	-0.025725	3.015717
155.075908	2687.575261	1.221153	-0.025783	3.021093
155.488726	2698.574819	1.226158	-0.025864	3.026476
155.685111	2709.599037	1.231162	-0.025903	3.031830
155.842793	2720.657128	1.236167	-0.025936	3.037186
155.990338	2731.634737	1.241172	-0.025966	3.042492
156.433272	2742.675524	1.246177	-0.026052	3.047861
156.763023	2753.659929	1.251181	-0.026116	3.053177
156.962349	2764.700733	1.256186	-0.026157	3.058493
157.060694	2775.718459	1.261191	-0.026178	3.063774
157.614010	2786.711721	1.266195	-0.026284	3.069098
157.948000	2797.743904	1.271200	-0.026350	3.074401
158.200907	2808.784734	1.276205	-0.026400	3.079687
158.315780	2819.787002	1.281210	-0.026424	3.084927
158.665548	2830.811720	1.286214	-0.026492	3.090201
158.941498	2841.805506	1.291219	-0.026547	3.095441
159.296507	2852.848439	1.296224	-0.026616	3.100706
159.564442	2863.838161	1.301228	-0.026669	3.105925
160.032413	2874.858008	1.306233	-0.026760	3.111177
160.195665	2885.901015	1.311238	-0.026793	3.116389
160.583244	2896.907956	1.316243	-0.026869	3.121606
160.578280	2907.941789	1.321247	-0.026870	3.126773
160.953450	2918.944303	1.326252	-0.026944	3.131969
161.294465	2929.943388	1.331257	-0.027010	3.137150
161.581119	2940.991715	1.336262	-0.027067	3.142338
161.972741	2951.988222	1.341266	-0.027143	3.147507
162.353470	2963.004394	1.346271	-0.027217	3.152676
162.541257	2974.042247	1.351276	-0.027255	3.157820
162.814071	2985.049156	1.356280	-0.027309	3.162952
163.152362	2996.053091	1.361285	-0.027375	3.168084
163.562446	3007.086113	1.366290	-0.027455	3.173230
163.915636	3018.068597	1.371295	-0.027524	3.178337
164.172644	3029.143983	1.376299	-0.027575	3.183466
164.311046	3040.135225	1.381304	-0.027604	3.188531
164.640417	3051.141774	1.386309	-0.027668	3.193621
164.818951	3062.177919	1.391314	-0.027704	3.198697
165.159902	3073.176488	1.396318	-0.027771	3.203769
165.291023	3084.218008	1.401323	-0.027798	3.208824
165.672554	3095.208050	1.406328	-0.027873	3.213881
165.809296	3106.235727	1.411332	-0.027901	3.218915
166.319972	3117.242308	1.416337	-0.028000	3.223980
166.489806	3128.281683	1.421342	-0.028034	3.229008
166.680555	3139.301355	1.426347	-0.028073	3.234022
166.947657	3150.282468	1.431351	-0.028126	3.239020
167.351368	3161.328059	1.436356	-0.028204	3.244057
167.532786	3172.346254	1.441361	-0.028241	3.249046
167.890787	3183.337816	1.446366	-0.028311	3.254037
168.158668	3194.359253	1.451370	-0.028364	3.259023
168.748730	3205.362645	1.456375	-0.028477	3.264034
169.376112	3216.395890	1.461380	-0.028598	3.269055
169.792658	3227.417587	1.466384	-0.028679	3.274037
170.127316	3238.426700	1.471389	-0.028744	3.278994
170.489745	3249.461008	1.476394	-0.028815	3.283959
170.620537	3260.475939	1.481399	-0.028842	3.288879
171.062815	3271.491887	1.486403	-0.028928	3.293831
171.299322	3282.499626	1.491408	-0.028975	3.298745
171.812693	3293.513007	1.496413	-0.029074	3.303690
172.104046	3304.536540	1.501417	-0.029131	3.308604
172.381359	3315.541837	1.506422	-0.029186	3.313500
172.464868	3326.592412	1.511427	-0.029205	3.318385
172.762155	3337.581805	1.516432	-0.029263	3.323263
172.942151	3348.613710	1.521436	-0.029300	3.328137
173.308327	3359.615763	1.526441	-0.029371	3.333014
173.447629	3370.654165	1.531446	-0.029400	3.337872
173.723069	3381.640429	1.536451	-0.029454	3.342717
173.844164	3392.695676	1.541455	-0.029480	3.347565
174.128756	3403.691004	1.546460	-0.029536	3.352401
174.159214	3414.714462	1.551465	-0.029544	3.357211
174.856750	3425.698442	1.556469	-0.029678	3.362078
175.154114	3436.727940	1.561474	-0.029736	3.366909
175.453563	3447.743477	1.566479	-0.029795	3.371727
175.592184	3458.775414	1.571484	-0.029824	3.376526
175.897882	3469.793767	1.576488	-0.029884	3.381332
176.237097	3480.797045	1.581493	-0.029950	3.386129
176.606319	3491.815841	1.586498	-0.030023	3.390930
176.932773	3502.826295	1.591503	-0.030086	3.395715
177.452336	3513.835815	1.596507	-0.030187	3.400515
177.296874	3524.908975	1.601512	-0.030160	3.405256
177.929856	3535.864825	1.606517	-0.030282	3.410033
178.105898	3546.898689	1.611521	-0.030318	3.414783
178.351603	3557.919998	1.616526	-0.030366	3.419529
178.510482	3568.957531	1.621531	-0.030399	3.424265
178.905296	3579.929063	1.626536	-0.030476	3.428995
179.327574	3590.930512	1.631540	-0.030558	3.433733
180.716145	3601.942608	1.636545	-0.030821	3.438583
181.478804	3612.965745	1.641550	-0.030967	3.443357
182.098468	3624.006066	1.646555	-0.031086	3.448115
182.441671	3635.031496	1.651559	-0.031153	3.452828
182.764788	3646.038720	1.656564	-0.031216	3.457524
183.061780	3657.055094	1.661569	-0.031275	3.462214
183.384859	3668.100990	1.666573	-0.031338	3.466914
183.431176	3679.094315	1.671578	-0.031349	3.471553
183.732207	3690.093445	1.676583	-0.031409	3.476218
183.988510	3701.141430	1.681588	-0.031460	3.480891
184.384015	3712.140390	1.686592	-0.031536	3.485554
184.668577	3723.148990	1.691597	-0.031593	3.490202
185.139336	3734.173949	1.696602	-0.031684	3.494871
185.535988	3745.180503	1.701606	-0.031761	3.499518
186.029234	3756.205679	1.706611	-0.031856	3.504178
186.366091	3767.223360	1.711616	-0.031922	3.508810
186.793182	3778.252399	1.716621	-0.032005	3.513452
187.035961	3789.264581	1.721625	-0.032053	3.518059
187.324168	3800.259548	1.726630	-0.032110	3.522658
187.617621	3811.307648	1.731635	-0.032168	3.527273
187.664437	3822.336189	1.736640	-0.032179	3.531847
187.937200	3833.293063	1.741644	-0.032233	3.536410
188.333308	3844.336884	1.746649	-0.032310	3.541018
188.589105	3855.344730	1.751654	-0.032361	3.545588
189.044106	3866.342893	1.756658	-0.032449	3.550171
189.386986	3877.376766	1.761663	-0.032516	3.554750
189.819471	3888.396523	1.766668	-0.032600	3.559327
190.061627	3899.418071	1.771673	-0.032648	3.563878
190.451496	3910.442481	1.776677	-0.032724	3.568441
190.798226	3921.434936	1.781682	-0.032792	3.572979
191.038200	3932.474862	1.786687	-0.032840	3.577520
191.304973	3943.459139	1.791692	-0.032892	3.582035
191.952725	3954.491269	1.796696	-0.033017	3.586605
192.177099	3965.503079	1.801701	-0.033061	3.591115
192.619574	3976.516846	1.806706	-0.033147	3.595644
193.136770	3987.508082	1.811710	-0.033247	3.600166
193.683415	3998.571976	1.816715	-0.033352	3.604715
193.990985	4009.560506	1.821720	-0.033413	3.609202
194.513220	4020.594740	1.826725	-0.033513	3.613724
194.764946	4031.603750	1.831729	-0.033563	3.618202
195.145800	4042.624131	1.836734	-0.033638	3.622692
195.323978	4053.634710	1.841739	-0.033674	3.627151
195.802359	4064.636244	1.846744	-0.033766	3.631633
196.021207	4075.669094	1.851748	-0.033810	3.636094
196.482164	4086.675140	1.856753	-0.033899	3.640565
196.685989	4097.724751	1.861758	-0.033940	3.645021
196.973457	4108.747338	1.866762	-0.033997	3.649468
197.360690	4119.780026	1.871767	-0.034072	3.653925
197.864212	4130.789730	1.876772	-0.034170	3.658380
198.083536	4141.826861	1.881777	-0.034213	3.662810
198.296290	4152.827577	1.886781	-0.034256	3.667220
198.673936	4163.815797	1.891786	-0.034330	3.671636
199.258815	4174.856815	1.896791	-0.034442	3.676089
199.652709	4185.855517	1.901795	-0.034519	3.680501
199.964828	4196.913507	1.906800	-0.034580	3.684922
200.069990	4207.896377	1.911805	-0.034603	3.689287
200.413936	4218.910635	1.916810	-0.034670	3.693683
200.581419	4229.948681	1.921814	-0.034704	3.698065
201.060999	4240.928354	1.926819	-0.034797	3.702451
201.484155	4251.954329	1.931824	-0.034879	3.706845
201.990794	4262.957048	1.936829	-0.034977	3.711232
202.088805	4274.000500	1.941833	-0.034998	3.715588
202.447862	4284.999788	1.946838	-0.035068	3.719949
202.887735	4296.015277	1.951843	-0.035153	3.724319
203.283436	4307.033192	1.956847	-0.035230	3.728680
203.687193	4318.043935	1.961852	-0.035309	3.733034
203.939861	4329.088443	1.966857	-0.035359	3.737381
