Wed Nov 23 18:28:15 2022

Number of Points = 2200
Depth (nm)	Load (µN)	Time (s)	Depth (V)	Load (V)
-8.503699	-1.492811	0.000000	0.018690	1.001397
0.000000	5.471564	0.005005	0.017093	1.016156
3.588458	15.780857	0.010009	0.016417	1.032875
6.089653	26.971277	0.015014	0.015945	1.049997
8.044130	38.276290	0.020019	0.015575	1.066722
9.608460	49.525576	0.025024	0.015279	1.082916
10.770481	60.791598	0.030028	0.015058	1.098694
11.932915	71.950742	0.035033	0.014837	1.114106
14.445083	82.715739	0.040038	0.014363	1.129441
17.623499	93.794115	0.045043	0.013764	1.145286
19.268454	105.171331	0.050047	0.013452	1.160577
20.773896	116.360423	0.055052	0.013167	1.175369
22.074366	127.561431	0.060057	0.012920	1.189897
23.108294	138.707293	0.065061	0.012724	1.204062
24.374708	149.804459	0.070066	0.012483	1.218106
25.742268	160.879809	0.075071	0.012224	1.232007
26.867187	172.015623	0.080076	0.012010	1.245718
27.672073	183.194973	0.085080	0.011856	1.259194
28.368209	194.323369	0.090085	0.011723	1.272422
29.458733	205.321400	0.095090	0.011516	1.285528
30.503500	216.449263	0.100094	0.011317	1.298630
31.875935	227.435219	0.105099	0.011057	1.311575
33.398788	238.540645	0.110104	0.010768	1.324586
35.099272	249.475549	0.115109	0.010446	1.337352
37.218765	260.559747	0.120113	0.010046	1.350326
38.625034	271.748783	0.125118	0.009779	1.363008
39.925101	282.861542	0.130123	0.009532	1.375450
41.228959	293.923544	0.135128	0.009285	1.387727
42.596609	305.006721	0.140132	0.009026	1.399942
43.842681	316.078470	0.145137	0.008789	1.411993
44.938870	327.208972	0.150142	0.008581	1.423946
45.687321	338.323281	0.155146	0.008438	1.435654
46.968888	349.312863	0.160151	0.008194	1.447335
47.907757	360.438738	0.165156	0.008015	1.458934
48.758953	371.503741	0.170161	0.007853	1.470349
49.610280	382.567367	0.175165	0.007690	1.481675
51.020968	393.532868	0.180170	0.007423	1.493015
52.136504	404.649977	0.185175	0.007211	1.504314
52.961876	415.765215	0.190180	0.007053	1.515425
54.111460	426.760215	0.195184	0.006835	1.526451
55.081559	437.860997	0.200189	0.006650	1.537436
55.801993	448.942854	0.205194	0.006512	1.548241
56.676152	459.994210	0.210198	0.006345	1.558993
57.513477	471.038055	0.215203	0.006186	1.569652
58.394905	482.080142	0.220208	0.006017	1.580251
59.528416	493.109989	0.225213	0.005802	1.590851
60.494014	504.186735	0.230217	0.005618	1.601369
61.098523	515.279765	0.235222	0.005502	1.611714
62.137431	526.301189	0.240227	0.005304	1.622069
63.068426	537.326926	0.245232	0.005127	1.632327
63.842905	548.419944	0.250236	0.004979	1.642530
64.497722	559.459501	0.255241	0.004853	1.652585
65.306469	570.525754	0.260246	0.004699	1.662651
66.100522	581.529474	0.265250	0.004547	1.672596
67.239732	592.550429	0.270255	0.004330	1.682604
67.901531	603.651851	0.275260	0.004204	1.692475
68.756254	614.681331	0.280265	0.004040	1.702286
69.602754	625.726791	0.285269	0.003879	1.712051
70.494729	636.768159	0.290274	0.003709	1.721770
71.410761	647.793923	0.295279	0.003534	1.731428
72.191950	658.868216	0.300283	0.003385	1.741034
72.863882	669.918180	0.305288	0.003256	1.750533
74.068111	680.887506	0.310293	0.003027	1.760070
74.919864	691.980337	0.315298	0.002865	1.769554
75.710532	703.038056	0.320302	0.002714	1.778941
76.541500	714.052556	0.325307	0.002555	1.788254
77.409533	725.114522	0.330312	0.002389	1.797568
78.041906	736.184526	0.335317	0.002268	1.806773
78.869359	747.169131	0.340321	0.002110	1.815917
79.890431	758.199564	0.345326	0.001916	1.825107
80.671371	769.265111	0.350331	0.001766	1.834211
81.594319	780.290868	0.355335	0.001591	1.843277
82.201404	791.378174	0.360340	0.001474	1.852260
82.825261	802.419577	0.365345	0.001354	1.861167
83.465358	813.440935	0.370350	0.001231	1.870021
84.130807	824.476447	0.375354	0.001104	1.878850
84.850330	835.492026	0.380359	0.000966	1.887637
85.764743	846.511323	0.385364	0.000792	1.896439
86.712819	857.543034	0.390369	0.000611	1.905218
87.260274	868.646315	0.395373	0.000505	1.913904
87.926143	879.656183	0.400378	0.000378	1.922511
88.871908	890.658395	0.405383	0.000198	1.931147
89.432976	901.744226	0.410387	0.000090	1.939707
89.938733	912.764620	0.415392	-0.000008	1.948165
90.506497	923.807372	0.420397	-0.000117	1.956619
91.034649	934.824047	0.425402	-0.000219	1.965007
91.716424	945.864619	0.430406	-0.000350	1.973416
92.294704	956.904775	0.435411	-0.000461	1.981763
92.842879	967.927356	0.440416	-0.000567	1.990054
93.528503	978.958843	0.445421	-0.000698	1.998351
94.113678	990.002014	0.450425	-0.000811	2.006597
94.706141	1001.038994	0.455430	-0.000924	2.014806
95.148602	1012.063443	0.460435	-0.001010	2.022935
95.844010	1023.092936	0.465439	-0.001143	2.031098
96.508458	1034.123340	0.470444	-0.001271	2.039221
97.117948	1045.168066	0.475449	-0.001388	2.047309
97.766988	1056.194543	0.480454	-0.001512	2.055360
98.432137	1067.208050	0.485458	-0.001640	2.063375
99.028729	1078.257648	0.490463	-0.001755	2.071368
99.745629	1089.268656	0.495468	-0.001892	2.079331
100.338689	1100.326050	0.500472	-0.002006	2.087266
100.775945	1111.379583	0.505477	-0.002091	2.095132
101.176580	1122.382008	0.510482	-0.002169	2.102923
101.872842	1133.394690	0.515487	-0.002302	2.110763
102.496625	1144.434205	0.520491	-0.002422	2.118574
103.019933	1155.459823	0.525496	-0.002523	2.126324
103.556478	1166.523747	0.530501	-0.002626	2.134075
104.041160	1177.503489	0.535506	-0.002720	2.141727
104.719251	1188.547869	0.540510	-0.002850	2.149441
105.328436	1199.567302	0.545515	-0.002967	2.157095
105.959873	1210.620609	0.550520	-0.003088	2.164749
106.589868	1221.606113	0.555524	-0.003209	2.172330
107.155909	1232.691227	0.560529	-0.003318	2.179937
107.455052	1243.712446	0.565534	-0.003377	2.187413
108.098583	1254.716883	0.570539	-0.003500	2.194931
108.718440	1265.717119	0.575543	-0.003619	2.202415
109.520895	1276.773568	0.580548	-0.003773	2.209951
110.090166	1287.787768	0.585553	-0.003882	2.217381
110.572039	1298.849190	0.590558	-0.003975	2.224798
111.050360	1309.856510	0.595562	-0.004068	2.232154
111.590434	1320.879770	0.600567	-0.004172	2.239510
112.076667	1331.924333	0.605572	-0.004266	2.246843
112.524209	1342.957654	0.610576	-0.004352	2.254137
113.116226	1353.926436	0.615581	-0.004466	2.261396
114.292254	1364.934443	0.620586	-0.004690	2.268784
114.927874	1376.009649	0.625591	-0.004812	2.276074
115.694501	1387.010174	0.630595	-0.004958	2.283321
116.302321	1398.049974	0.635600	-0.005075	2.290536
116.814600	1409.102217	0.640605	-0.005174	2.297715
117.461867	1420.090736	0.645610	-0.005298	2.304860
117.979540	1431.143780	0.650614	-0.005398	2.311997
118.630828	1442.167909	0.655619	-0.005523	2.319120
119.013214	1453.194107	0.660624	-0.005597	2.326167
119.662335	1464.208015	0.665628	-0.005722	2.333241
120.276166	1475.238975	0.670633	-0.005840	2.340296
120.804553	1486.257368	0.675638	-0.005942	2.347304
121.390744	1497.296412	0.680643	-0.006054	2.354316
121.919382	1508.311478	0.685647	-0.006156	2.361280
122.504966	1519.332768	0.690652	-0.006269	2.368239
122.861120	1530.394444	0.695657	-0.006338	2.375155
123.258729	1541.394414	0.700661	-0.006416	2.382022
123.869621	1552.394050	0.705666	-0.006533	2.388912
124.383442	1563.450214	0.710671	-0.006632	2.395797
124.701651	1574.485779	0.715676	-0.006695	2.402610
125.274724	1585.482177	0.720680	-0.006805	2.409430
125.660659	1596.528144	0.725685	-0.006880	2.416224
126.097823	1607.537939	0.730690	-0.006965	2.422988
126.348768	1618.575873	0.735695	-0.007015	2.429712
127.087406	1629.539399	0.740699	-0.007156	2.436469
127.572640	1640.622121	0.745704	-0.007250	2.443229
128.057161	1651.615296	0.750709	-0.007343	2.449916
128.370843	1662.675992	0.755713	-0.007405	2.456592
128.887217	1673.678784	0.760718	-0.007505	2.463255
129.241275	1684.678370	0.765723	-0.007574	2.469866
130.383621	1695.652574	0.770728	-0.007791	2.476597
130.918412	1706.760549	0.775732	-0.007894	2.483271
131.265285	1717.769857	0.780737	-0.007962	2.489833
131.648746	1728.813560	0.785742	-0.008037	2.496404
132.231293	1739.789229	0.790747	-0.008149	2.502956
132.702966	1750.843575	0.795751	-0.008240	2.509516
132.951018	1761.871534	0.800756	-0.008289	2.516001
133.308879	1772.902932	0.805761	-0.008359	2.522492
133.746037	1783.892382	0.810765	-0.008444	2.528957
134.328739	1794.910723	0.815770	-0.008556	2.535449
135.144986	1805.898629	0.820775	-0.008712	2.541950
135.634265	1816.982606	0.825780	-0.008806	2.548429
136.301840	1827.957767	0.830784	-0.008934	2.554862
137.018317	1838.991835	0.835789	-0.009071	2.561322
137.605291	1850.018037	0.840794	-0.009184	2.567736
138.085555	1861.105046	0.845799	-0.009277	2.574149
138.537283	1872.088387	0.850803	-0.009365	2.580483
139.015360	1883.114004	0.855808	-0.009457	2.586829
139.370342	1894.124886	0.860813	-0.009526	2.593129
139.580107	1905.165325	0.865817	-0.009568	2.599404
139.980271	1916.145130	0.870822	-0.009646	2.605664
140.426775	1927.196828	0.875827	-0.009733	2.611957
140.948742	1938.199277	0.880832	-0.009833	2.618221
141.344498	1949.227202	0.885836	-0.009910	2.624462
141.903120	1960.216776	0.890841	-0.010018	2.630695
142.528357	1971.249538	0.895846	-0.010138	2.636950
143.051320	1982.290154	0.900850	-0.010239	2.643175
143.609383	1993.309107	0.905855	-0.010346	2.649380
144.004468	2004.340891	0.910860	-0.010423	2.655549
144.485459	2015.349461	0.915865	-0.010516	2.661705
145.014042	2026.347468	0.920869	-0.010618	2.667850
145.791525	2037.360906	0.925874	-0.010767	2.674032
146.322648	2048.389910	0.930879	-0.010869	2.680166
146.715069	2059.408149	0.935884	-0.010945	2.686255
147.167756	2070.440870	0.940888	-0.011033	2.692349
147.496535	2081.460778	0.945893	-0.011097	2.698401
148.027939	2092.431515	0.950898	-0.011200	2.704447
148.653510	2103.509168	0.955902	-0.011320	2.710553
148.956032	2114.525869	0.960907	-0.011380	2.716558
149.526556	2125.520628	0.965912	-0.011489	2.722583
149.903346	2136.546812	0.970917	-0.011563	2.728578
150.580242	2147.563379	0.975921	-0.011692	2.734606
151.088359	2158.573506	0.980926	-0.011791	2.740588
151.628053	2169.615978	0.985931	-0.011895	2.746580
151.992797	2180.643727	0.990936	-0.011966	2.752521
152.522078	2191.633080	0.995940	-0.012068	2.758457
152.969325	2202.665374	1.000945	-0.012154	2.764389
153.359034	2213.702752	1.005950	-0.012230	2.770301
153.900018	2224.693306	1.010954	-0.012335	2.776201
154.321580	2235.750513	1.015959	-0.012416	2.782103
154.729443	2246.727949	1.020964	-0.012496	2.787949
155.149990	2257.791020	1.025969	-0.012577	2.793829
155.410138	2268.791308	1.030973	-0.012629	2.799638
155.794680	2279.819108	1.035978	-0.012704	2.805469
156.301916	2290.837007	1.040983	-0.012802	2.811303
157.092633	2301.815042	1.045988	-0.012953	2.817149
157.868648	2312.833437	1.050992	-0.013101	2.823002
158.369533	2323.891594	1.055997	-0.013198	2.828819
158.619715	2334.913675	1.061002	-0.013247	2.834565
159.118224	2345.915523	1.066006	-0.013344	2.840329
159.715592	2356.947972	1.071011	-0.013458	2.846112
160.116053	2367.968996	1.076016	-0.013536	2.851846
160.705280	2378.960569	1.081021	-0.013650	2.857583
161.116912	2389.997939	1.086025	-0.013730	2.863304
161.440198	2401.030073	1.091030	-0.013793	2.868997
161.883954	2412.058488	1.096035	-0.013879	2.874696
162.276095	2423.060143	1.101039	-0.013955	2.880362
162.832237	2434.074778	1.106044	-0.014062	2.886048
163.164509	2445.108995	1.111049	-0.014127	2.891698
163.286178	2456.142694	1.116054	-0.014153	2.897304
163.703665	2467.140141	1.121058	-0.014234	2.902927
164.248592	2478.137161	1.126063	-0.014339	2.908558
164.652833	2489.164973	1.131068	-0.014418	2.914172
165.170457	2500.196090	1.136073	-0.014517	2.919794
165.644183	2511.198901	1.141077	-0.014609	2.925385
166.092060	2522.246795	1.146082	-0.014696	2.930983
166.340056	2533.245808	1.151087	-0.014745	2.936515
166.886060	2544.249188	1.156091	-0.014850	2.942084
167.452474	2555.280408	1.161096	-0.014959	2.947660
168.098446	2566.282602	1.166101	-0.015083	2.953223
168.565455	2577.312648	1.171106	-0.015174	2.958761
169.061097	2588.353964	1.176110	-0.015269	2.964299
169.553581	2599.346595	1.181115	-0.015364	2.969803
169.988537	2610.399125	1.186120	-0.015449	2.975316
170.358980	2621.389269	1.191125	-0.015521	2.980779
170.802082	2632.415605	1.196129	-0.015607	2.986261
171.112917	2643.442036	1.201134	-0.015668	2.991713
171.716848	2654.426185	1.206139	-0.015784	2.997177
172.241122	2665.456955	1.211143	-0.015885	3.002643
172.728950	2676.500148	1.216148	-0.015979	3.008099
173.113577	2687.502485	1.221153	-0.016054	3.013510
173.545995	2698.528698	1.226158	-0.016138	3.018930
173.957068	2709.525549	1.231162	-0.016218	3.024322
174.496791	2720.585291	1.236167	-0.016322	3.029754
174.709180	2731.577839	1.241172	-0.016365	3.035097
175.259156	2742.605028	1.246177	-0.016471	3.040495
175.608976	2753.619403	1.251181	-0.016539	3.045849
175.919376	2764.645805	1.256186	-0.016600	3.051193
176.422451	2775.629885	1.261191	-0.016697	3.056535
177.050212	2786.646185	1.266195	-0.016818	3.061901
177.550315	2797.681272	1.271200	-0.016914	3.067248
177.800738	2808.723306	1.276205	-0.016964	3.072553
177.790545	2819.754541	1.281210	-0.016965	3.077808
178.387795	2830.709802	1.286214	-0.017079	3.083103
178.835711	2841.762373	1.291219	-0.017166	3.088413
179.357240	2852.769809	1.296224	-0.017267	3.093704
179.693977	2863.794530	1.301228	-0.017333	3.098968
180.029075	2874.829585	1.306233	-0.017398	3.104227
180.424012	2885.825629	1.311238	-0.017475	3.109467
180.810482	2896.854430	1.316243	-0.017550	3.114713
181.225243	2907.859995	1.321247	-0.017631	3.119942
181.513303	2918.891805	1.326252	-0.017688	3.125158
181.868908	2929.915816	1.331257	-0.017757	3.130371
182.225913	2940.923424	1.336262	-0.017827	3.135567
182.532450	2951.921653	1.341266	-0.017887	3.140743
183.083382	2962.948468	1.346271	-0.017993	3.145957
183.406681	2973.975574	1.351276	-0.018057	3.151132
183.669176	2984.990517	1.356280	-0.018109	3.156284
183.847039	2996.028275	1.361285	-0.018145	3.161427
184.199649	3007.031793	1.366290	-0.018214	3.166570
184.790952	3018.002153	1.371295	-0.018327	3.171720
185.467499	3029.060904	1.376299	-0.018457	3.176915
185.816303	3040.067784	1.381304	-0.018525	3.182033
186.231287	3051.110851	1.386309	-0.018606	3.187168
186.404070	3062.117389	1.391314	-0.018641	3.192245
186.990925	3073.113364	1.396318	-0.018754	3.197365
187.454966	3084.127036	1.401323	-0.018844	3.202468
188.038710	3095.160979	1.406328	-0.018956	3.207588
188.321151	3106.180581	1.411332	-0.019012	3.212654
188.693758	3117.205501	1.416337	-0.019084	3.217725
188.880088	3128.214799	1.421342	-0.019122	3.222757
189.360227	3139.233719	1.426347	-0.019215	3.227825
189.811541	3150.227771	1.431351	-0.019302	3.232868
190.353639	3161.256086	1.436356	-0.019407	3.237932
190.628455	3172.281701	1.441361	-0.019461	3.242951
190.951396	3183.314994	1.446366	-0.019524	3.247972
191.197461	3194.304570	1.451370	-0.019573	3.252956
191.891618	3205.307637	1.456375	-0.019706	3.257996
192.244248	3216.349872	1.461380	-0.019775	3.263001
192.633736	3227.397472	1.466384	-0.019851	3.268006
192.814104	3238.373640	1.471389	-0.019887	3.272944
193.319527	3249.391726	1.476394	-0.019985	3.277935
193.642173	3260.431032	1.481399	-0.020048	3.282905
194.151121	3271.427226	1.486403	-0.020146	3.287872
194.511091	3282.443014	1.491408	-0.020217	3.292820
194.970931	3293.468387	1.496413	-0.020306	3.297778
195.329358	3304.481930	1.501417	-0.020376	3.302711
195.861445	3315.491150	1.506422	-0.020478	3.307656
196.292284	3326.502338	1.511427	-0.020562	3.312581
196.860087	3337.530399	1.516432	-0.020671	3.317524
197.094802	3348.556522	1.521436	-0.020718	3.322417
197.401601	3359.602138	1.526441	-0.020778	3.327320
197.547140	3370.587762	1.531446	-0.020808	3.332169
198.072029	3381.590510	1.536451	-0.020909	3.337066
198.360004	3392.608400	1.541455	-0.020966	3.341933
198.890936	3403.646208	1.546460	-0.021068	3.346832
199.178283	3414.642118	1.551465	-0.021125	3.351674
199.410441	3425.694790	1.556469	-0.021171	3.356528
199.705116	3436.669435	1.561474	-0.021229	3.361349
200.221645	3447.716966	1.566479	-0.021329	3.366221
200.717415	3458.701302	1.571484	-0.021425	3.371056
201.306536	3469.729000	1.576488	-0.021538	3.375914
201.582236	3480.744843	1.581493	-0.021593	3.380722
202.036666	3491.772133	1.586498	-0.021681	3.385549
202.375384	3502.787931	1.591503	-0.021747	3.390351
202.639749	3513.794094	1.596507	-0.021799	3.395133
203.098414	3524.803182	1.601512	-0.021888	3.399932
203.641300	3535.849825	1.606517	-0.021993	3.404751
203.937247	3546.839582	1.611521	-0.022051	3.409509
204.171127	3557.878246	1.616526	-0.022097	3.414274
204.550474	3568.887789	1.621531	-0.022171	3.419037
205.044659	3579.881196	1.626536	-0.022267	3.423799
205.417340	3590.908702	1.631540	-0.022339	3.428556
206.018329	3601.926018	1.636545	-0.022455	3.433328
206.250265	3612.960121	1.641550	-0.022501	3.438057
206.482912	3623.957317	1.646555	-0.022548	3.442764
207.206553	3634.957799	1.651559	-0.022686	3.447524
207.626299	3646.007155	1.656564	-0.022768	3.452262
208.066507	3656.986098	1.661569	-0.022853	3.456966
208.682867	3668.027924	1.666573	-0.022971	3.461710
208.825911	3679.057364	1.671578	-0.023001	3.466388
209.161315	3690.063093	1.676583	-0.023066	3.471072
209.479169	3701.069545	1.681588	-0.023129	3.475747
210.153845	3712.078718	1.686592	-0.023258	3.480459
210.543855	3723.114462	1.691597	-0.023334	3.485142
210.745953	3734.143856	1.696602	-0.023375	3.489795
211.000545	3745.138795	1.701606	-0.023425	3.494433
211.307619	3756.167843	1.706611	-0.023486	3.499085
211.723602	3767.173207	1.711616	-0.023566	3.503733
212.326715	3778.206229	1.716621	-0.023682	3.508408
212.288822	3789.213089	1.721625	-0.023678	3.512993
212.872034	3800.226841	1.726630	-0.023790	3.517645
213.026790	3811.236785	1.731635	-0.023822	3.522241
213.599544	3822.255488	1.736640	-0.023932	3.526881
213.858917	3833.282224	1.741644	-0.023983	3.531484
214.157984	3844.291727	1.746649	-0.024042	3.536078
214.323295	3855.311197	1.751654	-0.024076	3.540655
214.383153	3866.366747	1.756658	-0.024090	3.545229
214.631143	3877.321530	1.761663	-0.024139	3.549776
215.015097	3888.346446	1.766668	-0.024214	3.554362
215.430892	3899.375106	1.771673	-0.024295	3.558946
215.899528	3910.363878	1.776677	-0.024385	3.563514
216.115477	3921.426680	1.781682	-0.024429	3.568079
216.409146	3932.399166	1.786687	-0.024486	3.572609
216.782580	3943.427803	1.791692	-0.024559	3.577166
217.173189	3954.432628	1.796696	-0.024635	3.581708
217.648484	3965.458201	1.801701	-0.024727	3.586263
218.090831	3976.490942	1.806706	-0.024813	3.590810
218.133249	3987.512897	1.811710	-0.024824	3.595305
218.501291	3998.509479	1.816715	-0.024895	3.599818
218.984412	4009.524148	1.821720	-0.024989	3.604346
219.469708	4020.536360	1.826725	-0.025083	3.608867
219.683186	4031.560290	1.831729	-0.025125	3.613357
219.856380	4042.594930	1.836734	-0.025161	3.617842
220.094163	4053.571427	1.841739	-0.025208	3.622305
220.384558	4064.622015	1.846744	-0.025265	3.626798
220.622038	4075.621555	1.851748	-0.025312	3.631259
221.100974	4086.636160	1.856753	-0.025405	3.635746
221.327729	4097.685577	1.861758	-0.025450	3.640215
221.771023	4108.709542	1.866762	-0.025536	3.644691
222.204336	4119.711941	1.871767	-0.025620	3.649152
222.496659	4130.769198	1.876772	-0.025678	3.653614
222.952893	4141.769044	1.881777	-0.025766	3.658065
223.257697	4152.784961	1.886781	-0.025826	3.662501
223.485372	4163.797189	1.891786	-0.025872	3.666922
223.837864	4174.816047	1.896791	-0.025940	3.671354
224.152189	4185.817745	1.901795	-0.026002	3.675769
224.688419	4196.825957	1.906800	-0.026105	3.680204
225.012486	4207.882123	1.911805	-0.026169	3.684631
225.222246	4218.866786	1.916810	-0.026211	3.689013
225.544277	4229.879560	1.921814	-0.026274	3.693412
225.909892	4240.913336	1.926819	-0.026346	3.697818
226.379946	4251.910525	1.931824	-0.026436	3.702215
226.846051	4262.935675	1.936829	-0.026527	3.706618
226.978232	4273.943026	1.941833	-0.026554	3.710974
227.516416	4284.986601	1.946838	-0.026658	3.715381
227.682027	4295.966422	1.951843	-0.026692	3.719719
228.350316	4306.998436	1.956847	-0.026820	3.724124
228.607755	4317.983981	1.961852	-0.026871	3.728464
228.875410	4329.038058	1.966857	-0.026924	3.732826
229.206805	4340.067338	1.971862	-0.026989	3.737180
