Wed Nov 23 18:09:14 2022

Number of Points = 2200
Depth (nm)	Load (µN)	Time (s)	Depth (V)	Load (V)
0.000000	2.298318	0.000000	0.011190	1.028354
1.163827	8.121208	0.005005	0.010971	1.037259
1.961104	17.309233	0.010009	0.010819	1.050620
2.831571	27.940252	0.015014	0.010653	1.065842
3.306561	39.043616	0.020019	0.010561	1.081293
3.828085	50.158468	0.025024	0.010460	1.096565
4.224469	61.324020	0.030028	0.010383	1.111633
4.325434	72.498228	0.035033	0.010361	1.126368
4.590157	83.627418	0.040038	0.010309	1.140933
4.668074	94.748426	0.045043	0.010292	1.155216
5.147972	105.802183	0.050047	0.010199	1.169425
5.288396	116.950681	0.055052	0.010170	1.183426
5.639857	128.046274	0.060057	0.010101	1.197294
5.672240	139.187089	0.065061	0.010092	1.210916
5.818938	150.304438	0.070066	0.010062	1.224408
5.962387	161.381827	0.075071	0.010032	1.237704
6.221992	172.449421	0.080076	0.009981	1.250896
6.243547	183.584944	0.085080	0.009974	1.263929
6.436858	194.638313	0.090085	0.009935	1.276807
6.601721	205.736291	0.095090	0.009901	1.289595
6.674388	216.886336	0.100094	0.009885	1.302278
7.024148	227.872487	0.105099	0.009817	1.314768
7.277968	238.979682	0.110104	0.009766	1.327236
7.406942	250.042884	0.115109	0.009739	1.339489
7.567490	261.135388	0.120113	0.009706	1.351676
7.721865	272.197822	0.125118	0.009675	1.363719
8.018095	283.268970	0.130123	0.009616	1.375720
8.189005	294.340484	0.135128	0.009582	1.387570
8.365143	305.429791	0.140132	0.009546	1.399340
8.521385	316.485656	0.145137	0.009514	1.410970
8.674347	327.559723	0.150142	0.009482	1.422522
8.954596	338.581068	0.155146	0.009427	1.433973
9.197584	349.666548	0.160151	0.009379	1.445386
22.605321	357.557746	0.165156	0.006861	1.458276
31.313130	370.695688	0.170161	0.005224	1.474591
31.612726	382.722972	0.175165	0.005164	1.486636
32.470509	393.840147	0.180170	0.005001	1.497889
32.851538	404.943630	0.185175	0.004926	1.508877
33.881784	415.941743	0.190180	0.004730	1.519909
34.774564	426.975840	0.195184	0.004560	1.530848
35.640969	438.072356	0.200189	0.004395	1.541759
36.272781	449.146749	0.205194	0.004274	1.552493
37.139938	460.182969	0.210198	0.004108	1.563196
38.072994	471.195506	0.215203	0.003930	1.573826
39.229024	482.235938	0.220208	0.003711	1.584483
39.431344	493.450526	0.225213	0.003670	1.594916
40.267892	504.383766	0.230217	0.003510	1.605230
40.900075	515.474761	0.235222	0.003389	1.615555
41.722058	526.489722	0.240227	0.003232	1.625807
42.990799	537.450891	0.245232	0.002991	1.636088
43.805398	548.584154	0.250236	0.002836	1.646314
44.569043	559.633115	0.255241	0.002690	1.656386
45.363413	570.697279	0.260246	0.002538	1.666419
45.698490	581.793159	0.265250	0.002472	1.676277
46.610630	592.745102	0.270255	0.002298	1.686130
47.310294	603.839633	0.275260	0.002164	1.695983
48.043785	614.891361	0.280265	0.002024	1.705753
48.492715	625.968205	0.285269	0.001937	1.715402
49.064120	636.992463	0.290274	0.001827	1.724989
49.629349	648.025769	0.295279	0.001718	1.734528
50.521933	659.013479	0.300283	0.001548	1.744074
51.401232	670.066750	0.305288	0.001380	1.753618
52.138670	681.129272	0.310293	0.001239	1.763077
52.695181	692.210370	0.315298	0.001132	1.772447
53.072425	703.264631	0.320302	0.001058	1.781694
53.901133	714.226331	0.325307	0.000900	1.790947
54.551658	725.319107	0.330312	0.000775	1.800207
55.361558	736.307258	0.335317	0.000621	1.809381
56.004850	747.389726	0.340321	0.000497	1.818537
56.554648	758.431076	0.345326	0.000391	1.827587
57.178744	769.476364	0.350331	0.000271	1.836617
57.745323	780.495830	0.355335	0.000162	1.845565
58.641787	791.513658	0.360340	-0.000009	1.854560
59.077552	802.596768	0.365345	-0.000093	1.863436
59.862291	813.586405	0.370350	-0.000243	1.872292
60.601792	824.644465	0.375354	-0.000384	1.881146
61.174767	835.692786	0.380359	-0.000495	1.889907
61.803725	846.720743	0.385364	-0.000615	1.898626
62.840918	857.697663	0.390369	-0.000813	1.907374
63.143356	868.837066	0.395373	-0.000872	1.916012
63.732677	879.818646	0.400378	-0.000986	1.924566
64.163391	890.902518	0.405383	-0.001069	1.933118
64.829019	901.888185	0.410387	-0.001197	1.941619
65.313365	912.932103	0.415392	-0.001290	1.950079
65.971314	923.959803	0.420397	-0.001417	1.958536
66.537521	935.003054	0.425402	-0.001526	1.966944
67.175748	946.037571	0.430406	-0.001648	1.975328
67.663665	957.052617	0.435411	-0.001742	1.983623
68.412136	968.072853	0.440416	-0.001886	1.991953
68.865059	979.160932	0.445421	-0.001973	2.000224
69.941940	990.066389	0.450425	-0.002178	2.008484
70.565917	1001.211567	0.455430	-0.002298	2.016771
71.062378	1012.238637	0.460435	-0.002394	2.024906
71.840747	1023.228779	0.465439	-0.002543	2.033051
72.277945	1034.306504	0.470444	-0.002627	2.041143
72.893999	1045.329436	0.475449	-0.002746	2.049207
73.633794	1056.349838	0.480454	-0.002887	2.057268
74.188957	1067.381697	0.485458	-0.002994	2.065260
74.917939	1078.410092	0.490463	-0.003134	2.073261
75.275123	1089.473859	0.495468	-0.003203	2.081166
75.760726	1100.509029	0.500472	-0.003297	2.089052
76.168863	1111.531873	0.505477	-0.003377	2.096880
76.770255	1122.551899	0.510482	-0.003492	2.104724
77.241628	1133.549495	0.515487	-0.003583	2.112491
77.766924	1144.623116	0.520491	-0.003685	2.120296
78.409519	1155.590495	0.525496	-0.003808	2.128026
79.104527	1166.660199	0.530501	-0.003941	2.135810
79.378998	1177.713904	0.535506	-0.003995	2.143457
79.966352	1188.706339	0.540510	-0.004108	2.151107
80.411340	1199.752088	0.545515	-0.004194	2.158733
81.285994	1210.740914	0.550520	-0.004361	2.166392
81.823646	1221.811350	0.555524	-0.004465	2.174002
82.260370	1232.824567	0.560529	-0.004550	2.181524
82.594280	1243.873583	0.565534	-0.004615	2.189021
83.220123	1254.883871	0.570539	-0.004735	2.196531
83.646618	1265.920680	0.575543	-0.004818	2.203989
84.097223	1276.965407	0.580548	-0.004905	2.211432
84.559454	1287.936618	0.585553	-0.004995	2.218804
85.257764	1298.971374	0.590558	-0.005128	2.226246
85.835955	1310.019282	0.595562	-0.005240	2.233645
86.568421	1321.013245	0.600567	-0.005380	2.241017
87.011452	1332.074046	0.605572	-0.005466	2.248346
87.490661	1343.135349	0.610576	-0.005558	2.255658
88.005149	1354.109631	0.615581	-0.005658	2.262898
88.355315	1365.164994	0.620586	-0.005726	2.270132
88.995599	1376.145702	0.625591	-0.005849	2.277357
89.681282	1387.191428	0.630595	-0.005980	2.284610
89.981038	1398.250758	0.635600	-0.006039	2.291767
90.646855	1409.220948	0.640605	-0.006167	2.298922
91.191512	1420.265293	0.645610	-0.006272	2.306076
91.743905	1431.307319	0.650614	-0.006378	2.313208
92.173132	1442.306796	0.655619	-0.006461	2.320265
92.900944	1453.339575	0.660624	-0.006601	2.327384
93.428571	1464.380626	0.665628	-0.006702	2.334444
93.819722	1475.413532	0.670633	-0.006779	2.341450
94.301797	1486.408265	0.675638	-0.006872	2.348429
94.926681	1497.455110	0.680643	-0.006992	2.355449
95.306637	1508.471145	0.685647	-0.007066	2.362379
95.970380	1519.485842	0.690652	-0.007193	2.369346
96.421801	1530.530036	0.695657	-0.007280	2.376267
96.945136	1541.535494	0.700661	-0.007381	2.383159
97.658091	1552.524350	0.705666	-0.007518	2.390058
98.308414	1563.600619	0.710671	-0.007643	2.396979
98.641875	1574.644597	0.715676	-0.007708	2.403796
99.144511	1585.649181	0.720680	-0.007805	2.410603
99.492640	1596.667464	0.725685	-0.007873	2.417368
99.980937	1607.682241	0.730690	-0.007967	2.424141
100.734446	1618.672900	0.735695	-0.008112	2.430932
101.059257	1629.758591	0.740699	-0.008175	2.437676
101.367816	1640.773379	0.745704	-0.008236	2.444357
101.893622	1651.770406	0.750709	-0.008337	2.451050
102.412866	1662.802784	0.755713	-0.008437	2.457746
103.034109	1673.798889	0.760718	-0.008557	2.464421
103.344964	1684.875968	0.765723	-0.008618	2.471065
103.789806	1695.874799	0.770728	-0.008704	2.477672
104.249838	1706.904248	0.775732	-0.008793	2.484281
104.586163	1717.928186	0.780737	-0.008859	2.490846
105.092829	1728.934837	0.785742	-0.008957	2.497416
105.728320	1739.949890	0.790747	-0.009079	2.503998
106.271545	1750.978032	0.795751	-0.009183	2.510553
106.853841	1761.996596	0.800756	-0.009295	2.517092
107.035229	1773.067358	0.805761	-0.009332	2.523569
107.423979	1784.053135	0.810765	-0.009408	2.530019
107.793609	1795.069907	0.815770	-0.009480	2.536466
108.270400	1806.107143	0.820775	-0.009572	2.542929
108.647598	1817.111676	0.825780	-0.009645	2.549339
109.093366	1828.147894	0.830784	-0.009732	2.555762
109.550847	1839.159920	0.835789	-0.009820	2.562158
110.122417	1850.187435	0.840794	-0.009930	2.568568
110.425044	1861.257176	0.845799	-0.009990	2.574936
111.012988	1872.225964	0.850803	-0.010103	2.581283
111.264115	1883.275905	0.855808	-0.010153	2.587599
111.614516	1894.281591	0.860813	-0.010221	2.593893
111.983195	1905.280404	0.865817	-0.010293	2.600171
112.386300	1916.332182	0.870822	-0.010372	2.606469
112.729116	1927.337371	0.875827	-0.010439	2.612715
113.254923	1938.336237	0.880832	-0.010540	2.618976
113.572915	1949.366753	0.885836	-0.010602	2.625202
114.067966	1960.390637	0.890841	-0.010698	2.631441
114.452533	1971.414246	0.895846	-0.010773	2.637645
114.976346	1982.436298	0.900850	-0.010874	2.643858
115.557123	1993.440900	0.905855	-0.010986	2.650057
116.079299	2004.494920	0.910860	-0.011086	2.656258
116.346953	2015.513484	0.915865	-0.011139	2.662381
116.840536	2026.509921	0.920869	-0.011235	2.668516
117.033413	2037.551943	0.925874	-0.011274	2.674611
117.566710	2048.536665	0.930879	-0.011376	2.680718
117.888775	2059.563092	0.935884	-0.011440	2.686799
118.515550	2070.583341	0.940888	-0.011560	2.692914
118.732357	2081.606717	0.945893	-0.011603	2.698947
119.276560	2092.605246	0.950898	-0.011708	2.705008
119.807126	2103.620178	0.955902	-0.011810	2.711063
120.529304	2114.635330	0.960907	-0.011949	2.717136
120.783931	2125.698022	0.965912	-0.011999	2.723142
121.225328	2136.711026	0.970917	-0.012085	2.729140
121.224635	2147.749153	0.975921	-0.012087	2.735063
121.614326	2158.746420	0.980926	-0.012163	2.741018
122.193883	2169.717305	0.985931	-0.012275	2.746977
122.581110	2180.788274	0.990936	-0.012350	2.752944
122.882583	2191.811911	0.995940	-0.012409	2.758858
123.325037	2202.817246	1.000945	-0.012495	2.764774
123.648658	2213.837244	1.005950	-0.012559	2.770665
124.195699	2224.862771	1.010954	-0.012664	2.776583
124.427699	2235.897629	1.015959	-0.012710	2.782441
124.684986	2246.904214	1.020964	-0.012761	2.788277
124.978516	2257.923487	1.025969	-0.012819	2.794112
125.501196	2268.924673	1.030973	-0.012920	2.799964
125.885322	2279.957338	1.035978	-0.012995	2.805797
126.411845	2290.972802	1.040983	-0.013096	2.811631
126.710041	2302.002246	1.045988	-0.013155	2.817424
127.100037	2313.013671	1.050992	-0.013231	2.823210
127.406243	2324.036161	1.055997	-0.013291	2.828977
127.884687	2335.043913	1.061002	-0.013383	2.834752
128.229982	2346.080168	1.066006	-0.013451	2.840508
128.589324	2357.099127	1.071011	-0.013521	2.846246
129.149713	2368.120625	1.076016	-0.013629	2.852006
129.380865	2379.118691	1.081021	-0.013675	2.857689
129.541679	2390.162429	1.086025	-0.013708	2.863374
129.966290	2401.164845	1.091030	-0.013790	2.869067
130.207769	2412.201850	1.096035	-0.013838	2.874738
130.547560	2423.216628	1.101039	-0.013905	2.880402
130.861093	2434.227743	1.106044	-0.013966	2.886049
131.352071	2445.258125	1.111049	-0.014061	2.891722
131.469494	2456.278311	1.116054	-0.014086	2.897321
131.779212	2467.283979	1.121058	-0.014147	2.902931
132.288319	2478.268299	1.126063	-0.014245	2.908550
132.990639	2489.309786	1.131068	-0.014380	2.914217
133.427477	2500.325877	1.136073	-0.014464	2.919819
133.865642	2511.370710	1.141077	-0.014549	2.925425
133.930308	2522.382456	1.146082	-0.014564	2.930947
134.416103	2533.395084	1.151087	-0.014658	2.936522
134.577677	2544.399948	1.156091	-0.014691	2.942034
135.063081	2555.423327	1.161096	-0.014785	2.947594
135.325744	2566.463342	1.166101	-0.014837	2.953118
135.768566	2577.450795	1.171106	-0.014923	2.958632
136.233458	2588.474669	1.176110	-0.015013	2.964157
136.640583	2599.528275	1.181115	-0.015092	2.969678
136.666973	2610.541217	1.186120	-0.015099	2.975112
137.158868	2621.536562	1.191125	-0.015194	2.980597
137.482277	2632.549498	1.196129	-0.015258	2.986054
137.868534	2643.592681	1.201134	-0.015333	2.991526
137.953358	2654.596652	1.206139	-0.015352	2.996925
138.563597	2665.583317	1.211143	-0.015469	3.002382
138.979141	2676.625492	1.216148	-0.015550	3.007828
139.292189	2687.649606	1.221153	-0.015611	3.013240
139.534931	2698.680266	1.226158	-0.015659	3.018635
139.970655	2709.678225	1.231162	-0.015744	3.024032
140.201797	2720.718233	1.236167	-0.015790	3.029411
140.608378	2731.711394	1.241172	-0.015869	3.034783
140.878366	2742.761438	1.246177	-0.015922	3.040152
141.196845	2753.747408	1.251181	-0.015985	3.045489
141.598904	2764.783958	1.256186	-0.016063	3.050852
142.077497	2775.772628	1.261191	-0.016156	3.056194
142.140119	2786.820803	1.266195	-0.016170	3.061495
142.510869	2797.834411	1.271200	-0.016242	3.066815
142.624674	2808.862770	1.276205	-0.016266	3.072096
143.077912	2819.842203	1.281210	-0.016354	3.077392
143.631172	2830.858660	1.286214	-0.016461	3.082711
144.114480	2841.899034	1.291219	-0.016554	3.088022
144.399435	2852.914867	1.296224	-0.016610	3.093285
144.756077	2863.941103	1.301228	-0.016680	3.098553
144.901123	2874.966370	1.306233	-0.016710	3.103783
145.396340	2885.960642	1.311238	-0.016806	3.109037
145.706287	2896.980265	1.316243	-0.016867	3.114269
146.293036	2907.992340	1.321247	-0.016979	3.119527
146.517853	2919.022997	1.326252	-0.017024	3.124734
146.981549	2930.042044	1.331257	-0.017114	3.129961
147.193262	2941.073891	1.336262	-0.017156	3.135149
147.547198	2952.072446	1.341266	-0.017226	3.140333
147.806406	2963.095890	1.346271	-0.017277	3.145508
148.112695	2974.119265	1.351276	-0.017337	3.150680
148.586240	2985.111441	1.356280	-0.017429	3.155851
149.099526	2996.109853	1.361285	-0.017528	3.161022
149.385572	3007.161503	1.366290	-0.017584	3.166179
150.026991	3018.160855	1.371295	-0.017707	3.171351
150.307297	3029.173805	1.376299	-0.017763	3.176472
150.970278	3040.199789	1.381304	-0.017890	3.181642
151.213729	3051.234753	1.386309	-0.017938	3.186751
151.491193	3062.244463	1.391314	-0.017993	3.191846
151.868266	3073.272415	1.396318	-0.018066	3.196953
152.127202	3084.275567	1.401323	-0.018118	3.202026
152.625374	3095.296795	1.406328	-0.018214	3.207130
152.886471	3106.331512	1.411332	-0.018266	3.212200
153.141759	3117.321164	1.416337	-0.018316	3.217242
153.564566	3128.356124	1.421342	-0.018398	3.222318
153.791729	3139.376689	1.426347	-0.018444	3.227354
154.116345	3150.366608	1.431351	-0.018507	3.232380
154.425974	3161.401058	1.436356	-0.018568	3.237417
154.745959	3172.417550	1.441361	-0.018631	3.242440
155.150381	3183.436853	1.446366	-0.018710	3.247467
155.278531	3194.464302	1.451370	-0.018736	3.252453
155.497631	3205.473673	1.456375	-0.018780	3.257436
155.783493	3216.481672	1.461380	-0.018836	3.262419
156.002858	3227.497293	1.466384	-0.018880	3.267389
156.338096	3238.519760	1.471389	-0.018946	3.272370
156.596549	3249.554074	1.476394	-0.018997	3.277338
156.859762	3260.527078	1.481399	-0.019049	3.282272
157.232963	3271.574454	1.486403	-0.019122	3.287246
157.446076	3282.594058	1.491408	-0.019165	3.292179
157.738022	3293.607250	1.496413	-0.019222	3.297112
158.063521	3304.602344	1.501417	-0.019286	3.302034
158.429529	3315.633670	1.506422	-0.019358	3.306970
158.905556	3326.635776	1.511427	-0.019450	3.311899
159.295646	3337.655089	1.516432	-0.019526	3.316817
159.654378	3348.693663	1.521436	-0.019596	3.321733
159.885278	3359.709972	1.526441	-0.019642	3.326615
160.267866	3370.696241	1.531446	-0.019716	3.331496
160.509673	3381.745892	1.536451	-0.019764	3.336380
160.929320	3392.742545	1.541455	-0.019846	3.341256
160.896120	3403.798493	1.546460	-0.019842	3.346094
161.268969	3414.776741	1.551465	-0.019915	3.350942
161.452514	3425.803783	1.556469	-0.019952	3.355780
161.743845	3436.844558	1.561474	-0.020009	3.360631
162.136507	3447.815716	1.566479	-0.020086	3.365457
162.601519	3458.851679	1.571484	-0.020176	3.370312
162.757937	3469.863158	1.576488	-0.020208	3.375113
163.232317	3480.867723	1.581493	-0.020300	3.379942
163.474610	3491.898571	1.586498	-0.020348	3.384747
163.823374	3502.915580	1.591503	-0.020416	3.389553
163.945564	3513.929320	1.596507	-0.020442	3.394322
164.436391	3524.955143	1.601512	-0.020536	3.399135
164.757581	3535.945635	1.606517	-0.020599	3.403905
165.222375	3546.969299	1.611521	-0.020689	3.408700
165.590233	3557.977666	1.616526	-0.020761	3.413470
165.736377	3569.021826	1.621531	-0.020791	3.418222
165.903747	3580.023065	1.626536	-0.020825	3.422951
166.226238	3591.052224	1.631540	-0.020889	3.427704
166.551297	3602.041405	1.636545	-0.020952	3.432434
167.080417	3613.068022	1.641550	-0.021054	3.437198
167.314112	3624.104015	1.646555	-0.021101	3.441923
167.695995	3635.107145	1.651559	-0.021175	3.446646
167.959635	3646.121545	1.656564	-0.021228	3.451353
168.262507	3657.143372	1.661569	-0.021287	3.456061
168.546289	3668.147402	1.666573	-0.021343	3.460753
168.955495	3679.180182	1.671578	-0.021423	3.465466
169.206484	3690.197090	1.676583	-0.021472	3.470147
169.590622	3701.191100	1.681588	-0.021547	3.474827
169.817635	3712.232230	1.686592	-0.021593	3.479502
170.187192	3723.242713	1.691597	-0.021665	3.484175
170.384658	3734.275222	1.696602	-0.021704	3.488831
170.696023	3745.244607	1.701606	-0.021766	3.493467
171.000793	3756.296295	1.706611	-0.021825	3.498131
171.346102	3767.281756	1.711616	-0.021893	3.502765
171.637840	3778.328840	1.716621	-0.021950	3.507413
171.961927	3789.330376	1.721625	-0.022014	3.512039
172.291768	3800.345157	1.726630	-0.022079	3.516665
172.620381	3811.364571	1.731635	-0.022143	3.521287
172.763348	3822.413787	1.736640	-0.022173	3.525894
173.109526	3833.380367	1.741644	-0.022240	3.530484
173.125114	3844.423884	1.746649	-0.022246	3.535062
173.512134	3855.409985	1.751654	-0.022321	3.539652
173.892608	3866.452530	1.756658	-0.022395	3.544259
174.193170	3877.451896	1.761663	-0.022455	3.548833
174.290140	3888.506209	1.766668	-0.022475	3.553401
174.678238	3899.484310	1.771673	-0.022551	3.557964
175.007700	3910.490353	1.776677	-0.022616	3.562527
175.266332	3921.536686	1.781682	-0.022667	3.567092
175.509017	3932.522474	1.786687	-0.022715	3.571624
175.741171	3943.567972	1.791692	-0.022761	3.576174
176.067540	3954.544480	1.796696	-0.022825	3.580700
176.433834	3965.604775	1.801701	-0.022897	3.585259
176.627990	3976.584628	1.806706	-0.022936	3.589761
176.881786	3987.630739	1.811710	-0.022986	3.594291
177.260989	3998.621495	1.816715	-0.023060	3.598805
177.482907	4009.682135	1.821720	-0.023105	3.603326
177.916912	4020.672721	1.826725	-0.023189	3.607835
178.259668	4031.662419	1.831729	-0.023256	3.612328
178.490050	4042.701355	1.836734	-0.023302	3.616823
178.811058	4053.692347	1.841739	-0.023365	3.621303
179.025285	4064.739457	1.846744	-0.023408	3.625789
179.397726	4075.732233	1.851748	-0.023480	3.630264
179.904393	4086.742949	1.856753	-0.023578	3.634755
180.169682	4097.807442	1.861758	-0.023630	3.639236
180.374896	4108.848819	1.866762	-0.023672	3.643697
180.733000	4119.841044	1.871767	-0.023742	3.648148
181.032973	4130.883355	1.876772	-0.023801	3.652607
181.182746	4141.896257	1.881777	-0.023831	3.657033
181.653583	4152.871858	1.886781	-0.023923	3.661473
182.026773	4163.897777	1.891786	-0.023995	3.665917
182.298832	4174.944353	1.896791	-0.024049	3.670354
182.523132	4185.952771	1.901795	-0.024094	3.674765
182.716630	4196.967764	1.906800	-0.024133	3.679169
182.998038	4207.982584	1.911805	-0.024188	3.683578
183.120427	4219.002804	1.916810	-0.024214	3.687967
183.513748	4230.001839	1.921814	-0.024291	3.692370
183.720184	4241.023606	1.926819	-0.024332	3.696758
184.056651	4252.020868	1.931824	-0.024398	3.701144
184.300127	4263.057225	1.936829	-0.024446	3.705531
184.707309	4274.043003	1.941833	-0.024526	3.709909
184.716314	4285.120035	1.946838	-0.024530	3.714277
185.106304	4296.072544	1.951843	-0.024606	3.718630
185.388607	4307.128042	1.956847	-0.024662	3.723008
185.767774	4318.155859	1.961852	-0.024735	3.727379
185.942632	4329.131100	1.966857	-0.024771	3.731703
186.202983	4340.155353	1.971862	-0.024823	3.736051
186.315553	4351.178889	1.976866	-0.024846	3.740378
186.726676	4362.202355	1.981871	-0.024926	3.744730
