Wed Nov 23 18:47:16 2022

Number of Points = 2200
Depth (nm)	Load (µN)	Time (s)	Depth (V)	Load (V)
-2.133598	1.785011	0.000000	-0.034632	1.148915
0.000000	8.188064	0.005005	-0.035034	1.158023
2.973643	17.432445	0.010009	-0.035595	1.170997
6.087944	28.175322	0.015014	-0.036182	1.185738
8.485933	39.357716	0.020019	-0.036634	1.200512
10.398221	50.605105	0.025024	-0.036996	1.214969
11.797853	61.824125	0.030028	-0.037261	1.228998
12.633934	73.069289	0.035033	-0.037421	1.242656
13.298653	84.207164	0.040038	-0.037548	1.255967
14.036840	95.285581	0.045043	-0.037690	1.269101
14.637452	106.412183	0.050047	-0.037805	1.282097
15.162511	117.521643	0.055052	-0.037906	1.294912
15.436059	128.720902	0.060057	-0.037961	1.307599
15.823546	139.718101	0.065061	-0.038036	1.319986
16.742169	150.597987	0.070066	-0.038211	1.332341
23.746482	160.650637	0.075071	-0.039528	1.346084
25.339564	172.536849	0.080076	-0.039830	1.359544
26.850468	183.773491	0.085080	-0.040116	1.372147
28.140251	194.912104	0.090085	-0.040361	1.384447
29.287758	206.026408	0.095090	-0.040579	1.396558
30.484099	217.091678	0.100094	-0.040806	1.408532
31.808969	228.119797	0.105099	-0.041057	1.420414
32.665860	239.276907	0.110104	-0.041221	1.432156
33.823642	250.306921	0.115109	-0.041441	1.443783
34.870829	261.378903	0.120113	-0.041640	1.455318
35.921176	272.469048	0.125118	-0.041840	1.466782
36.866235	283.518791	0.130123	-0.042020	1.478078
37.619342	294.638755	0.135128	-0.042164	1.489289
38.497201	305.647550	0.140132	-0.042332	1.500352
39.950922	316.639389	0.145137	-0.042607	1.511517
40.953808	327.741182	0.150142	-0.042798	1.522549
41.995438	338.837455	0.155146	-0.042996	1.533509
42.997991	349.877226	0.160151	-0.043187	1.544324
43.677817	360.993011	0.165156	-0.043317	1.555027
44.570803	372.004278	0.170161	-0.043488	1.565629
45.548915	383.066520	0.175165	-0.043674	1.576235
46.334828	394.109599	0.180170	-0.043824	1.586689
47.455042	405.131266	0.185175	-0.044037	1.597164
48.519479	416.182622	0.190180	-0.044239	1.607578
49.559882	427.263140	0.195184	-0.044437	1.617944
50.402081	438.323880	0.200189	-0.044598	1.628162
51.213974	449.400143	0.205194	-0.044753	1.638320
52.099135	460.391268	0.210198	-0.044922	1.648363
52.998427	471.470043	0.215203	-0.045094	1.658426
53.874094	482.504526	0.220208	-0.045261	1.668381
54.819676	493.552672	0.225213	-0.045441	1.678311
55.338755	504.672836	0.230217	-0.045541	1.688113
56.558597	515.591178	0.235222	-0.045773	1.697899
57.502526	526.689837	0.240227	-0.045952	1.707698
58.468621	537.717334	0.245232	-0.046136	1.717387
59.255258	548.783300	0.250236	-0.046287	1.727000
60.273123	559.802887	0.255241	-0.046480	1.736590
61.121169	570.846195	0.260246	-0.046642	1.746096
62.336237	581.856104	0.265250	-0.046873	1.755629
63.176859	592.970130	0.270255	-0.047034	1.765088
64.079822	603.985479	0.275260	-0.047206	1.774433
64.961204	615.023177	0.280265	-0.047374	1.783740
65.747139	626.069863	0.285269	-0.047524	1.792979
66.528222	637.128431	0.290274	-0.047673	1.802178
67.321392	648.168166	0.295279	-0.047825	1.811319
68.079827	659.191121	0.300283	-0.047970	1.820390
69.032670	670.233047	0.305288	-0.048151	1.829485
69.751227	681.273873	0.310293	-0.048289	1.838468
70.428893	692.331746	0.315298	-0.048419	1.847410
71.242569	703.356841	0.320302	-0.048574	1.856320
72.135557	714.386423	0.325307	-0.048745	1.865213
73.003251	725.394922	0.330312	-0.048910	1.874039
73.907352	736.454124	0.335317	-0.049083	1.882873
74.663541	747.504230	0.340321	-0.049227	1.891618
75.521098	758.511382	0.345326	-0.049391	1.900317
76.385210	769.554742	0.350331	-0.049556	1.909005
77.148035	780.619830	0.355335	-0.049702	1.917643
77.563790	791.689252	0.360340	-0.049782	1.926155
78.542022	802.640260	0.365345	-0.049969	1.934686
79.322500	813.704144	0.370350	-0.050118	1.943213
80.268628	824.712387	0.375354	-0.050298	1.951703
81.304660	835.736819	0.380359	-0.050495	1.960192
81.988380	846.817001	0.385364	-0.050626	1.968594
82.635111	857.874752	0.390369	-0.050750	1.976935
83.181321	868.903674	0.395373	-0.050855	1.985194
83.829506	879.923017	0.400378	-0.050980	1.993436
84.691148	890.907957	0.405383	-0.051144	2.001673
85.395698	901.984031	0.410387	-0.051279	2.009903
86.297545	912.997720	0.415392	-0.051451	2.018103
86.928838	924.051780	0.420397	-0.051572	2.026232
87.657076	935.065578	0.425402	-0.051712	2.034323
88.277505	946.117249	0.430406	-0.051831	2.042382
89.051984	957.136723	0.435411	-0.051979	2.050424
89.860084	968.151820	0.440416	-0.052133	2.058439
90.587314	979.180242	0.445421	-0.052272	2.066412
91.438522	990.211244	0.450425	-0.052435	2.074387
92.047495	1001.275820	0.455430	-0.052552	2.082296
92.737374	1012.279995	0.460435	-0.052684	2.090152
93.512496	1023.324141	0.465439	-0.052832	2.098026
93.965121	1034.389581	0.470444	-0.052920	2.105809
94.581122	1045.388333	0.475449	-0.053038	2.113555
95.472449	1056.375716	0.480454	-0.053208	2.121330
96.420858	1067.429010	0.485458	-0.053389	2.129134
96.892213	1078.504779	0.490463	-0.053480	2.136815
97.497660	1089.522807	0.495468	-0.053596	2.144459
97.917127	1100.537096	0.500472	-0.053678	2.152030
98.267512	1111.616175	0.505477	-0.053746	2.159603
98.916635	1122.574880	0.510482	-0.053871	2.167137
99.761745	1133.616836	0.515487	-0.054032	2.174744
100.152180	1144.665476	0.520491	-0.054108	2.182226
100.844872	1155.684837	0.525496	-0.054241	2.189731
101.404925	1166.704869	0.530501	-0.054349	2.197180
101.774435	1177.771486	0.535506	-0.054421	2.204593
102.514311	1188.732274	0.540510	-0.054562	2.211993
103.102199	1199.798052	0.545515	-0.054675	2.219404
103.703612	1210.799065	0.550520	-0.054791	2.226750
104.205824	1221.876470	0.555524	-0.054888	2.234100
104.502766	1232.890812	0.560529	-0.054946	2.241340
105.409251	1243.857329	0.565534	-0.055119	2.248658
105.715437	1254.978856	0.570539	-0.055179	2.255922
106.103232	1265.979579	0.575543	-0.055255	2.263102
106.479102	1276.973692	0.580548	-0.055328	2.270253
107.058305	1288.001587	0.585553	-0.055439	2.277446
107.717659	1299.027829	0.590558	-0.055566	2.284633
108.231019	1310.049187	0.595562	-0.055665	2.291762
108.739546	1321.088372	0.600567	-0.055763	2.298880
109.293723	1332.089392	0.605572	-0.055870	2.305961
109.665482	1343.145870	0.610576	-0.055942	2.313016
110.271376	1354.140353	0.615581	-0.056059	2.320060
111.060029	1365.155466	0.620586	-0.056209	2.327134
111.643769	1376.212785	0.625591	-0.056322	2.334169
112.093404	1387.237985	0.630595	-0.056409	2.341136
112.517617	1398.261401	0.635600	-0.056491	2.348075
112.925639	1409.300761	0.640605	-0.056570	2.355001
113.509336	1420.271731	0.645610	-0.056683	2.361899
113.973429	1431.354242	0.650614	-0.056773	2.368822
114.329309	1442.366905	0.655619	-0.056842	2.375659
114.741531	1453.375178	0.660624	-0.056922	2.382486
115.196420	1464.398810	0.665628	-0.057010	2.389310
115.675691	1475.445113	0.670633	-0.057103	2.396134
116.214507	1486.423519	0.675638	-0.057207	2.402909
116.818077	1497.485013	0.680643	-0.057323	2.409728
117.341378	1508.478773	0.685647	-0.057424	2.416470
117.786537	1519.527831	0.690652	-0.057510	2.423212
118.280046	1530.540967	0.695657	-0.057605	2.429923
118.472381	1541.590383	0.700661	-0.057644	2.436577
119.047015	1552.573871	0.705666	-0.057755	2.443249
119.312218	1563.644683	0.710671	-0.057807	2.449894
119.823208	1574.629440	0.715676	-0.057906	2.456518
120.158368	1585.681611	0.720680	-0.057971	2.463129
120.520762	1596.683673	0.725685	-0.058042	2.469699
120.978527	1607.695406	0.730690	-0.058131	2.476275
121.612670	1618.716442	0.735695	-0.058252	2.482872
122.210179	1629.741484	0.740699	-0.058367	2.489447
122.470451	1640.806001	0.745704	-0.058419	2.495964
122.806415	1651.800738	0.750709	-0.058485	2.502437
123.382032	1662.806724	0.755713	-0.058595	2.508945
124.058693	1673.819109	0.760718	-0.058725	2.515459
124.438506	1684.859754	0.765723	-0.058799	2.521917
125.442737	1695.750480	0.770728	-0.058990	2.528388
127.799658	1706.780033	0.775732	-0.059435	2.535172
128.339351	1717.920821	0.780737	-0.059539	2.541666
128.880440	1728.950353	0.785742	-0.059643	2.548079
129.292422	1739.963239	0.790747	-0.059723	2.554443
129.576569	1751.020051	0.795751	-0.059779	2.560793
130.105580	1762.001520	0.800756	-0.059881	2.567129
130.996879	1773.030193	0.805761	-0.060051	2.573542
131.195328	1784.115842	0.810765	-0.060091	2.579845
131.922949	1795.025157	0.815770	-0.060231	2.586128
132.706903	1806.094820	0.820775	-0.060380	2.592497
132.967290	1817.131394	0.825780	-0.060432	2.598737
133.325006	1828.151458	0.830784	-0.060502	2.604971
133.755358	1839.172408	0.835789	-0.060585	2.611202
134.174014	1850.170429	0.840794	-0.060667	2.617404
135.030396	1861.181502	0.845799	-0.060830	2.623676
135.354406	1872.231559	0.850803	-0.060894	2.629861
135.845230	1883.230676	0.855808	-0.060988	2.636032
136.267149	1894.298246	0.860813	-0.061070	2.642214
136.500949	1905.308447	0.865817	-0.061117	2.648317
136.895983	1916.300294	0.870822	-0.061194	2.654424
137.366065	1927.335240	0.875827	-0.061285	2.660553
137.654759	1938.374850	0.880832	-0.061342	2.666639
137.913414	1949.383690	0.885836	-0.061393	2.672690
138.146348	1960.400115	0.890841	-0.061439	2.678726
138.754227	1971.407815	0.895846	-0.061556	2.684809
139.066012	1982.443039	0.900850	-0.061617	2.690841
139.517389	1993.448998	0.905855	-0.061705	2.696868
139.973464	2004.479842	0.910860	-0.061793	2.702896
140.582622	2015.463892	0.915865	-0.061910	2.708911
141.031917	2026.510627	0.920869	-0.061997	2.714919
141.764347	2037.499841	0.925874	-0.062137	2.720930
142.309561	2048.535085	0.930879	-0.062242	2.726921
142.981635	2059.556086	0.935884	-0.062371	2.732913
142.981594	2070.602584	0.940888	-0.062374	2.738792
143.345762	2081.579369	0.945893	-0.062445	2.744683
143.725012	2092.613221	0.950898	-0.062519	2.750594
144.320778	2103.618973	0.955902	-0.062633	2.756512
144.418645	2114.703350	0.960907	-0.062654	2.762378
144.763928	2125.649344	0.965912	-0.062722	2.768198
145.194165	2136.698194	0.970917	-0.062805	2.774074
145.614490	2147.712706	0.975921	-0.062887	2.779919
146.064216	2158.708921	0.980926	-0.062974	2.785745
146.862296	2169.731753	0.985931	-0.063127	2.791630
147.148296	2180.783132	0.990936	-0.063183	2.797435
147.523305	2191.780312	0.995940	-0.063256	2.803213
147.939689	2202.825764	1.000945	-0.063337	2.809012
148.510544	2213.796610	1.005950	-0.063447	2.814784
148.893390	2224.843411	1.010954	-0.063521	2.820553
149.488835	2235.856663	1.015959	-0.063636	2.826327
149.833564	2246.907447	1.020964	-0.063703	2.832069
150.189249	2257.890679	1.025969	-0.063773	2.837766
150.478523	2268.943108	1.030973	-0.063830	2.843477
150.762375	2279.948294	1.035978	-0.063886	2.849151
151.168063	2290.963367	1.040983	-0.063965	2.854837
151.652543	2301.982186	1.045988	-0.064058	2.860527
152.126765	2312.993485	1.050992	-0.064150	2.866199
152.411332	2324.027478	1.055997	-0.064206	2.871843
152.819316	2335.035803	1.061002	-0.064285	2.877481
153.337151	2346.035029	1.066006	-0.064385	2.883121
153.875664	2357.066184	1.071011	-0.064489	2.888768
154.343422	2368.109542	1.076016	-0.064579	2.894400
154.594146	2379.139262	1.081021	-0.064629	2.899981
154.874670	2390.125349	1.086025	-0.064685	2.905533
155.294863	2401.160745	1.091030	-0.064766	2.911121
155.662784	2412.150564	1.096035	-0.064838	2.916667
156.125708	2423.192985	1.101039	-0.064928	2.922243
156.396353	2434.197450	1.106044	-0.064981	2.927761
156.795580	2445.242439	1.111049	-0.065059	2.933308
156.960830	2456.249332	1.116054	-0.065092	2.938789
157.287261	2467.257781	1.121058	-0.065156	2.944286
157.838012	2478.274273	1.126063	-0.065262	2.949810
158.383579	2489.278755	1.131068	-0.065368	2.955316
158.701659	2500.330618	1.136073	-0.065430	2.960802
158.824827	2511.370603	1.141077	-0.065456	2.966243
159.215277	2522.349069	1.146082	-0.065532	2.971683
159.738648	2533.349529	1.151087	-0.065633	2.977143
160.247738	2544.375721	1.156091	-0.065731	2.982604
160.687842	2555.394107	1.161096	-0.065816	2.988041
161.197933	2566.429998	1.166101	-0.065915	2.993486
161.445652	2577.452148	1.171106	-0.065964	2.998876
161.832082	2588.462456	1.176110	-0.066039	3.004272
162.244190	2599.498204	1.181115	-0.066119	3.009673
162.566231	2610.483556	1.186120	-0.066182	3.015027
162.970979	2621.521712	1.191125	-0.066261	3.020409
163.157063	2632.559697	1.196129	-0.066299	3.025750
163.374440	2643.584642	1.201134	-0.066342	3.031080
163.896566	2654.523329	1.206139	-0.066443	3.036402
164.444279	2665.595525	1.211143	-0.066548	3.041782
164.642667	2676.628542	1.216148	-0.066588	3.047085
164.996316	2687.618438	1.221153	-0.066657	3.052379
165.485955	2698.609031	1.226158	-0.066752	3.057684
165.793460	2709.676617	1.231162	-0.066813	3.062991
166.265828	2720.674017	1.236167	-0.066904	3.068278
166.730371	2731.690585	1.241172	-0.066994	3.073564
166.943567	2742.711875	1.246177	-0.067036	3.078808
167.317405	2753.749001	1.251181	-0.067109	3.084072
167.573053	2764.751509	1.256186	-0.067160	3.089295
168.148532	2775.744216	1.261191	-0.067271	3.094549
168.563932	2786.787482	1.266195	-0.067351	3.099795
168.848501	2797.800522	1.271200	-0.067408	3.105000
169.156128	2808.834237	1.276205	-0.067468	3.110209
169.229925	2819.876677	1.281210	-0.067485	3.115381
169.589098	2830.836298	1.286214	-0.067555	3.120545
169.946410	2841.867312	1.291219	-0.067624	3.125734
170.484669	2852.893534	1.296224	-0.067728	3.130936
170.927247	2863.889320	1.301228	-0.067814	3.136102
171.382940	2874.914699	1.306233	-0.067902	3.141275
171.745364	2885.932674	1.311238	-0.067973	3.146424
172.190028	2896.943030	1.316243	-0.068059	3.151571
172.450335	2907.980952	1.321247	-0.068111	3.156698
172.957346	2918.986884	1.326252	-0.068209	3.161835
173.254149	2930.047328	1.331257	-0.068267	3.166961
173.541823	2941.012271	1.336262	-0.068324	3.172033
173.918747	2952.055703	1.341266	-0.068397	3.177144
174.459678	2963.027354	1.346271	-0.068501	3.182237
174.743734	2974.093717	1.351276	-0.068557	3.187330
175.062228	2985.107815	1.356280	-0.068620	3.192396
175.272420	2996.120326	1.361285	-0.068662	3.197438
175.556320	3007.128434	1.366290	-0.068718	3.202481
175.835142	3018.161847	1.371295	-0.068773	3.207526
176.324996	3029.147865	1.376299	-0.068868	3.212569
176.525012	3040.207622	1.381304	-0.068908	3.217600
176.724673	3051.202015	1.386309	-0.068948	3.222593
176.890965	3062.246127	1.391314	-0.068982	3.227597
177.332884	3073.208869	1.396318	-0.069068	3.232592
177.652190	3084.277741	1.401323	-0.069130	3.237611
178.182902	3095.231077	1.406328	-0.069233	3.242597
178.511459	3106.302983	1.411332	-0.069297	3.247603
178.761854	3117.286959	1.416337	-0.069347	3.252552
179.040603	3128.336431	1.421342	-0.069402	3.257526
179.649870	3139.296695	1.426347	-0.069519	3.262494
180.219249	3150.361411	1.431351	-0.069628	3.267497
180.565215	3161.361314	1.436356	-0.069696	3.272434
181.026566	3172.393830	1.441361	-0.069785	3.277393
181.297812	3183.396910	1.446366	-0.069839	3.282308
181.798308	3194.434095	1.451370	-0.069936	3.287258
182.116776	3205.428506	1.456375	-0.069998	3.292160
182.376699	3216.442086	1.461380	-0.070050	3.297055
182.768043	3227.471882	1.466384	-0.070126	3.301967
182.997883	3238.508173	1.471389	-0.070172	3.306854
183.209208	3249.489494	1.476394	-0.070214	3.311707
183.561730	3260.525519	1.481399	-0.070283	3.316594
183.947931	3271.531592	1.486403	-0.070358	3.321466
184.529477	3282.556922	1.491408	-0.070470	3.326362
184.607289	3293.570170	1.496413	-0.070487	3.331184
184.877010	3304.586233	1.501417	-0.070541	3.336024
185.172598	3315.602679	1.506422	-0.070599	3.340860
185.541664	3326.611140	1.511427	-0.070671	3.345694
185.859252	3337.641708	1.516432	-0.070733	3.350525
186.047026	3348.660816	1.521436	-0.070771	3.355328
186.299621	3359.671246	1.526441	-0.070821	3.360128
186.761116	3370.693374	1.531446	-0.070911	3.364951
187.058568	3381.695899	1.536451	-0.070969	3.369740
187.380856	3392.730606	1.541455	-0.071032	3.374538
187.745723	3403.729556	1.546460	-0.071103	3.379319
188.008532	3414.762717	1.551465	-0.071155	3.384095
188.400359	3425.761247	1.556469	-0.071232	3.388866
188.746686	3436.783213	1.561474	-0.071299	3.393634
189.229575	3447.786715	1.566479	-0.071393	3.398404
189.624988	3458.826045	1.571484	-0.071470	3.403172
189.895807	3469.817028	1.576488	-0.071523	3.407898
190.347781	3480.823892	1.581493	-0.071611	3.412645
190.560925	3491.884736	1.586498	-0.071654	3.417380
191.059240	3502.860984	1.591503	-0.071750	3.422107
191.501769	3513.893305	1.596507	-0.071835	3.426844
191.739958	3524.926970	1.601512	-0.071883	3.431551
191.996964	3535.924352	1.606517	-0.071934	3.436238
192.171477	3546.964880	1.611521	-0.071969	3.440928
192.457120	3557.971579	1.616526	-0.072026	3.445609
192.918297	3568.978624	1.621531	-0.072115	3.450305
193.189847	3580.007162	1.626536	-0.072169	3.454982
193.592912	3590.999986	1.631540	-0.072247	3.459652
194.817904	3601.956221	1.636545	-0.072480	3.464395
195.393713	3613.053383	1.641550	-0.072590	3.469116
195.849493	3624.052087	1.646555	-0.072679	3.473775
196.342047	3635.079847	1.651559	-0.072774	3.478444
196.930312	3646.057148	1.656564	-0.072887	3.483097
197.109743	3657.132617	1.661569	-0.072923	3.487738
197.333210	3668.112791	1.666573	-0.072968	3.492338
197.763855	3679.127907	1.671578	-0.073051	3.496970
198.072505	3690.155077	1.676583	-0.073112	3.501586
198.521756	3701.176258	1.681588	-0.073199	3.506210
198.680043	3712.179702	1.686592	-0.073232	3.510788
199.243416	3723.205730	1.691597	-0.073340	3.515415
199.546890	3734.215066	1.696602	-0.073400	3.519999
199.743584	3745.251239	1.701606	-0.073439	3.524577
200.281628	3756.243154	1.706611	-0.073543	3.529168
200.586868	3767.293681	1.711616	-0.073603	3.533751
200.798072	3778.287672	1.716621	-0.073645	3.538295
201.234248	3789.287954	1.721625	-0.073730	3.542860
201.433102	3800.341475	1.726630	-0.073770	3.547415
201.733358	3811.307413	1.731635	-0.073829	3.551940
202.027323	3822.351159	1.736640	-0.073887	3.556489
202.243967	3833.379562	1.741644	-0.073930	3.561018
202.516342	3844.374367	1.746649	-0.073984	3.565534
202.725779	3855.407086	1.751654	-0.074026	3.570053
203.104683	3866.387222	1.756658	-0.074100	3.574562
203.457640	3877.428460	1.761663	-0.074169	3.579088
203.579078	3888.459505	1.766668	-0.074194	3.583579
204.003315	3899.484763	1.771673	-0.074277	3.588095
204.201774	3910.463981	1.776677	-0.074317	3.592562
204.612731	3921.484795	1.781682	-0.074397	3.597063
205.094512	3932.480884	1.786687	-0.074490	3.601556
205.408522	3943.544132	1.791692	-0.074551	3.606052
205.687925	3954.531385	1.796696	-0.074606	3.610508
205.909240	3965.566464	1.801701	-0.074651	3.614972
206.269234	3976.535210	1.806706	-0.074721	3.619419
206.714396	3987.601138	1.811710	-0.074807	3.623907
207.126849	3998.592404	1.816715	-0.074887	3.628357
207.478836	4009.639207	1.821720	-0.074956	3.632817
207.790718	4020.620617	1.826725	-0.075017	3.637241
207.995820	4031.648432	1.831729	-0.075059	3.641668
208.441214	4042.657308	1.836734	-0.075145	3.646106
208.817015	4053.664532	1.841739	-0.075218	3.650531
209.052972	4064.695389	1.846744	-0.075265	3.654945
209.379199	4075.700453	1.851748	-0.075329	3.659353
209.742877	4086.733683	1.856753	-0.075400	3.663770
209.983256	4097.801717	1.861758	-0.075448	3.668184
210.224137	4108.785350	1.866762	-0.075496	3.672558
210.834289	4119.802974	1.871767	-0.075613	3.676979
211.176204	4130.799830	1.876772	-0.075680	3.681358
211.640536	4141.878014	1.881777	-0.075770	3.685777
211.814956	4152.850991	1.886781	-0.075805	3.690120
212.114597	4163.888685	1.891786	-0.075864	3.694495
212.279817	4174.898285	1.896791	-0.075898	3.698841
212.683823	4185.906903	1.901795	-0.075976	3.703205
213.058051	4196.924617	1.906800	-0.076049	3.707565
213.204463	4207.962634	1.911805	-0.076080	3.711904
213.536913	4218.960916	1.916810	-0.076145	3.716241
213.715263	4229.969690	1.921814	-0.076181	3.720562
214.070541	4241.005089	1.926819	-0.076250	3.724906
214.314296	4251.997439	1.931824	-0.076299	3.729217
214.441200	4263.003862	1.936829	-0.076325	3.733517
215.046976	4274.028701	1.941833	-0.076442	3.737866
215.283950	4285.056916	1.946838	-0.076489	3.742175
215.765059	4296.069359	1.951843	-0.076582	3.746497
216.020822	4307.063924	1.956847	-0.076633	3.750785
216.396474	4318.105207	1.961852	-0.076706	3.755098
216.711471	4329.090184	1.966857	-0.076768	3.759378
