Wed Nov 23 17:12:02 2022

Number of Points = 2200
Depth (nm)	Load (µN)	Time (s)	Depth (V)	Load (V)
-0.673065	1.480405	0.000000	0.044146	0.929022
0.000000	7.513973	0.005005	0.044018	0.938961
0.891255	16.427985	0.010009	0.043849	0.953397
1.717347	26.968832	0.015014	0.043691	0.970060
2.792573	37.941038	0.020019	0.043487	0.987225
3.500588	49.109771	0.025024	0.043351	1.004185
4.258037	60.288268	0.030028	0.043206	1.020903
4.851954	71.493680	0.035033	0.043092	1.037303
5.621956	82.616564	0.040038	0.042945	1.053423
6.093064	93.839472	0.045043	0.042854	1.069285
6.970465	104.880100	0.050047	0.042686	1.084871
11.648411	115.189127	0.055052	0.041806	1.101133
12.864004	126.924110	0.060057	0.041575	1.117355
13.561392	138.285768	0.065061	0.041441	1.132608
14.357936	149.448976	0.070066	0.041289	1.147449
15.120617	160.583163	0.075071	0.041143	1.162047
15.777645	171.717587	0.080076	0.041017	1.176416
16.344079	182.826954	0.085080	0.040908	1.190538
16.823070	194.006602	0.090085	0.040815	1.204541
18.274333	204.772638	0.095090	0.040540	1.218313
21.719472	215.645862	0.100094	0.039891	1.232933
22.552984	227.133797	0.105099	0.039732	1.246976
23.131928	238.347728	0.110104	0.039621	1.260432
23.953317	249.388803	0.115109	0.039464	1.273648
25.506611	260.387439	0.120113	0.039170	1.286986
26.331915	271.574951	0.125118	0.039012	1.300098
26.916475	282.758635	0.130123	0.038899	1.312976
27.957837	293.693980	0.135128	0.038701	1.325638
29.673260	304.665131	0.140132	0.038377	1.338489
30.881523	315.827851	0.145137	0.038147	1.351224
31.900777	326.957489	0.150142	0.037953	1.363730
32.538026	338.108007	0.155146	0.037831	1.375995
33.455132	349.113741	0.160151	0.037656	1.388105
34.833313	360.128480	0.165156	0.037395	1.400295
35.769935	371.278144	0.170161	0.037216	1.412354
36.445296	382.369497	0.175165	0.037087	1.424151
37.548252	393.398003	0.180170	0.036877	1.435946
38.354167	404.491920	0.185175	0.036723	1.447601
39.164249	415.571433	0.190180	0.036568	1.459149
40.097617	426.596081	0.195184	0.036391	1.470596
40.943761	437.691467	0.200189	0.036229	1.481992
41.772917	448.757009	0.205194	0.036071	1.493266
42.677513	459.806282	0.210198	0.035898	1.504466
43.464720	470.883220	0.215203	0.035748	1.515568
44.115746	481.955774	0.220208	0.035623	1.526537
44.993609	492.980572	0.225213	0.035455	1.537461
45.998891	504.020920	0.230217	0.035264	1.548364
46.836666	515.085313	0.235222	0.035104	1.559158
47.686622	526.149051	0.240227	0.034942	1.569879
48.436943	537.222987	0.245232	0.034798	1.580504
49.181880	548.279680	0.250236	0.034656	1.591040
49.835014	559.330617	0.255241	0.034531	1.601471
51.009384	570.320045	0.260246	0.034307	1.611947
51.695200	581.438021	0.265250	0.034176	1.622314
52.440726	592.490864	0.270255	0.034033	1.632575
53.014373	603.562477	0.275260	0.033923	1.642734
53.997776	614.515827	0.280265	0.033736	1.652854
54.667940	625.624420	0.285269	0.033607	1.662951
55.421278	636.677573	0.290274	0.033463	1.672965
56.356672	647.674539	0.295279	0.033285	1.682925
57.296994	658.738630	0.300283	0.033106	1.692886
57.870126	669.845434	0.305288	0.032995	1.702713
58.904620	680.793715	0.310293	0.032799	1.712488
59.567318	691.915854	0.315298	0.032672	1.722242
60.325056	702.944500	0.320302	0.032527	1.731891
60.939435	714.010820	0.325307	0.032409	1.741474
61.718157	725.006566	0.330312	0.032260	1.750995
62.471194	736.070841	0.335317	0.032116	1.760513
63.470071	747.069389	0.340321	0.031926	1.769997
64.417491	758.122747	0.345326	0.031745	1.779460
65.381777	769.161588	0.350331	0.031561	1.788866
65.955852	780.253781	0.355335	0.031451	1.798154
66.493547	791.313498	0.360340	0.031347	1.807356
67.453868	802.263897	0.365345	0.031164	1.816543
68.201895	813.352273	0.370350	0.031021	1.825735
68.838398	824.398173	0.375354	0.030899	1.834815
69.597913	835.429211	0.380359	0.030754	1.843873
70.213077	846.491663	0.385364	0.030636	1.852871
70.929195	857.518538	0.390369	0.030499	1.861824
71.536766	868.552725	0.395373	0.030382	1.870711
72.518103	879.534764	0.400378	0.030195	1.879616
73.183981	890.630886	0.405383	0.030067	1.888483
73.961464	901.669552	0.410387	0.029919	1.897293
74.494810	912.695498	0.415392	0.029816	1.905986
75.384146	923.704424	0.420397	0.029646	1.914722
76.002943	934.761424	0.425402	0.029527	1.923383
76.702117	945.804339	0.430406	0.029394	1.932015
77.214087	956.864070	0.435411	0.029295	1.940572
78.128099	967.830162	0.440416	0.029121	1.949126
78.626931	978.917359	0.445421	0.029024	1.957625
79.634113	989.896981	0.450425	0.028832	1.966138
80.344384	1000.952212	0.455430	0.028696	1.974594
80.973506	1012.015925	0.460435	0.028576	1.982999
81.585870	1023.051892	0.465439	0.028458	1.991343
82.143065	1034.100258	0.470444	0.028351	1.999647
82.762753	1045.112762	0.475449	0.028232	2.007907
83.673324	1056.115995	0.480454	0.028058	2.016198
84.380908	1067.157727	0.485458	0.027923	2.024433
85.093837	1078.228106	0.490463	0.027786	2.032655
85.520648	1089.272254	0.495468	0.027703	2.040755
86.069741	1100.274088	0.500472	0.027598	2.048822
86.635154	1111.320679	0.505477	0.027489	2.056893
87.435984	1122.299044	0.510482	0.027336	2.064942
88.183909	1133.346505	0.515487	0.027193	2.072995
88.724972	1144.405309	0.520491	0.027088	2.080974
89.207809	1155.447652	0.525496	0.026995	2.088898
89.900095	1166.459838	0.530501	0.026862	2.096820
90.518151	1177.487488	0.535506	0.026744	2.104705
91.253450	1188.508342	0.540510	0.026603	2.112583
91.765579	1199.546646	0.545515	0.026504	2.120392
92.441282	1210.565798	0.550520	0.026375	2.128196
92.968008	1221.624137	0.555524	0.026273	2.135964
93.601974	1232.613067	0.560529	0.026151	2.143681
94.197796	1243.655030	0.565534	0.026037	2.151398
94.803929	1254.715039	0.570539	0.025920	2.159101
95.021119	1265.762879	0.575543	0.025877	2.166679
95.887020	1276.721485	0.580548	0.025712	2.174319
96.521384	1287.763126	0.585553	0.025590	2.181935
97.253535	1298.785714	0.590558	0.025450	2.189533
97.797039	1309.826871	0.595562	0.025345	2.197075
98.563708	1320.864372	0.600567	0.025199	2.204638
98.881541	1331.906796	0.605572	0.025136	2.212078
99.375506	1342.929313	0.610576	0.025041	2.219519
99.844745	1353.933844	0.615581	0.024950	2.226918
100.777223	1364.942935	0.620586	0.024772	2.234397
101.004048	1376.028267	0.625591	0.024727	2.241746
101.604472	1387.031214	0.630595	0.024612	2.249098
102.096296	1398.059800	0.635600	0.024517	2.256420
102.556186	1409.096181	0.640605	0.024428	2.263715
102.995131	1420.096809	0.645610	0.024342	2.270960
103.806976	1431.110462	0.650614	0.024187	2.278270
104.127286	1442.157291	0.655619	0.024125	2.285472
104.777208	1453.179752	0.660624	0.024000	2.292706
105.338936	1464.191018	0.665628	0.023892	2.299891
105.873375	1475.235994	0.670633	0.023789	2.307070
106.225511	1486.288694	0.675638	0.023720	2.314192
106.905902	1497.251812	0.680643	0.023590	2.321305
107.411124	1508.313817	0.685647	0.023492	2.328421
107.923378	1519.365842	0.690652	0.023393	2.335511
108.350852	1530.350604	0.695657	0.023310	2.342519
108.931121	1541.368580	0.700661	0.023199	2.349559
109.432608	1552.403933	0.705666	0.023102	2.356572
109.975371	1563.454793	0.710671	0.022997	2.363582
110.360492	1574.442509	0.715676	0.022922	2.370499
110.945956	1585.492715	0.720680	0.022810	2.377476
111.275027	1596.520223	0.725685	0.022745	2.384367
112.103309	1607.488961	0.730690	0.022587	2.391302
112.423985	1618.583925	0.735695	0.022524	2.398192
112.842019	1629.580866	0.740699	0.022443	2.405021
113.388566	1640.601425	0.745704	0.022338	2.411872
113.895793	1651.620692	0.750709	0.022240	2.418694
114.389239	1662.632681	0.755713	0.022144	2.425489
115.065461	1673.652156	0.760718	0.022015	2.432306
115.636921	1684.696310	0.765723	0.021905	2.439098
116.130467	1695.711065	0.770728	0.021810	2.445838
116.559134	1706.747775	0.775732	0.021726	2.452560
117.204259	1717.761303	0.780737	0.021603	2.459292
117.663808	1728.770170	0.785742	0.021514	2.465966
118.084246	1739.836729	0.790747	0.021432	2.472648
118.476653	1750.849190	0.795751	0.021356	2.479275
118.981973	1761.866230	0.800756	0.021258	2.485909
119.342309	1772.880606	0.805761	0.021188	2.492495
119.872964	1783.916651	0.810765	0.021085	2.499110
120.386822	1794.905840	0.815770	0.020986	2.505675
120.903823	1805.935830	0.820775	0.020887	2.512248
121.391880	1816.982690	0.825780	0.020792	2.518809
121.700938	1828.015639	0.830784	0.020732	2.525310
122.285806	1838.995913	0.835789	0.020619	2.531815
122.846602	1850.034580	0.840794	0.020511	2.538333
123.307580	1861.044061	0.845799	0.020422	2.544798
123.946438	1872.078281	0.850803	0.020299	2.551295
124.308585	1883.128901	0.855808	0.020229	2.557733
124.688801	1894.130021	0.860813	0.020155	2.564129
125.144421	1905.151746	0.865817	0.020066	2.570535
125.516803	1916.228130	0.870822	0.019994	2.576941
125.733957	1927.214931	0.875827	0.019950	2.583251
126.369779	1938.195934	0.880832	0.019828	2.589619
126.698095	1949.243309	0.885836	0.019764	2.595953
127.020124	1960.267450	0.890841	0.019701	2.602257
127.673022	1971.241760	0.895846	0.019575	2.608578
128.084243	1982.309051	0.900850	0.019496	2.614892
128.515610	1993.309122	0.905855	0.019412	2.621156
129.184580	2004.328111	0.910860	0.019284	2.627458
129.490792	2015.385334	0.915865	0.019223	2.633702
130.019314	2026.358253	0.920869	0.019122	2.639923
130.432162	2037.399415	0.925874	0.019041	2.646147
130.883470	2048.428166	0.930879	0.018954	2.652357
131.003401	2059.444226	0.935884	0.018929	2.658486
131.613270	2070.421066	0.940888	0.018812	2.664665
131.939102	2081.459491	0.945893	0.018748	2.670814
132.441730	2092.497195	0.950898	0.018651	2.676980
132.691990	2103.509039	0.955902	0.018601	2.683072
133.164325	2114.516946	0.960907	0.018510	2.689188
133.804351	2125.523171	0.965912	0.018387	2.695317
134.139805	2136.589168	0.970917	0.018321	2.701413
134.537514	2147.573081	0.975921	0.018244	2.707460
135.101442	2158.576784	0.980926	0.018135	2.713534
135.669650	2169.637395	0.985931	0.018026	2.719625
136.171449	2180.638106	0.990936	0.017929	2.725658
136.683947	2191.662788	0.995940	0.017830	2.731693
137.110696	2202.695355	1.000945	0.017747	2.737704
137.536290	2213.681508	1.005950	0.017665	2.743677
137.855607	2224.737176	1.010954	0.017602	2.749656
138.169525	2235.761737	1.015959	0.017540	2.755604
138.707342	2246.753231	1.020964	0.017437	2.761559
139.233124	2257.768790	1.025969	0.017335	2.767512
139.716294	2268.815004	1.030973	0.017242	2.773462
139.950598	2279.827749	1.035978	0.017195	2.779339
140.339365	2290.850128	1.040983	0.017120	2.785235
140.780701	2301.870476	1.045988	0.017034	2.791125
141.307106	2312.871527	1.050992	0.016933	2.797007
141.797656	2323.895665	1.055997	0.016838	2.802883
142.110551	2334.946992	1.061002	0.016776	2.808731
142.393742	2345.950381	1.066006	0.016721	2.814538
142.901220	2356.962219	1.071011	0.016623	2.820373
143.474361	2367.958527	1.076016	0.016512	2.826198
143.993587	2379.021372	1.081021	0.016412	2.832037
144.429955	2389.999712	1.086025	0.016328	2.837807
144.753873	2401.050804	1.091030	0.016264	2.843584
145.102055	2412.060451	1.096035	0.016196	2.849333
145.724233	2423.042641	1.101039	0.016077	2.855099
146.062552	2434.109287	1.106044	0.016010	2.860851
146.663644	2445.112736	1.111049	0.015895	2.866601
146.981514	2456.147031	1.116054	0.015832	2.872311
147.302667	2467.160526	1.121058	0.015769	2.877999
147.655659	2478.180287	1.126063	0.015700	2.883684
148.106168	2489.213715	1.131068	0.015613	2.889379
148.425287	2500.207207	1.136073	0.015551	2.895023
148.797683	2511.253579	1.141077	0.015478	2.900691
149.022729	2522.258002	1.146082	0.015433	2.906303
149.551955	2533.274268	1.151087	0.015331	2.911958
149.634320	2544.295083	1.156091	0.015313	2.917535
150.154700	2555.301262	1.161096	0.015212	2.923161
150.448145	2566.345080	1.166101	0.015155	2.928760
150.765385	2577.348960	1.171106	0.015092	2.934332
150.939820	2588.374594	1.176110	0.015057	2.939883
151.242221	2599.384197	1.181115	0.014997	2.945434
151.707676	2610.399778	1.186120	0.014907	2.951003
152.243082	2621.421100	1.191125	0.014804	2.956575
152.615160	2632.432328	1.196129	0.014732	2.962106
153.136342	2643.436355	1.201134	0.014631	2.967646
153.399978	2654.487835	1.206139	0.014579	2.973160
153.776810	2665.506917	1.211143	0.014506	2.978664
154.230276	2676.486283	1.216148	0.014418	2.984151
154.651697	2687.556949	1.221153	0.014336	2.989667
154.999251	2698.525301	1.226158	0.014268	2.995112
155.213554	2709.603847	1.231162	0.014225	3.000581
155.499379	2720.571596	1.236167	0.014169	3.005996
156.268002	2731.586672	1.241172	0.014022	3.011496
156.520471	2742.604460	1.246177	0.013972	3.016911
157.125586	2753.628106	1.251181	0.013855	3.022371
157.484148	2764.666688	1.256186	0.013785	3.027792
157.753332	2775.680810	1.261191	0.013732	3.033178
158.057224	2786.703125	1.266195	0.013672	3.038564
158.686445	2797.682211	1.271200	0.013552	3.043966
159.098838	2808.733386	1.276205	0.013471	3.049362
159.457296	2819.757824	1.281210	0.013401	3.054728
159.579589	2830.771215	1.286214	0.013376	3.060045
160.175189	2841.764922	1.291219	0.013261	3.065411
160.511399	2852.810191	1.296224	0.013195	3.070756
161.026755	2863.806098	1.301228	0.013096	3.076092
161.385183	2874.838235	1.306233	0.013026	3.081415
161.653724	2885.862164	1.311238	0.012973	3.086711
161.911534	2896.875696	1.316243	0.012922	3.091992
162.378089	2907.880641	1.321247	0.012832	3.097289
162.851684	2918.893629	1.326252	0.012740	3.102582
163.282292	2929.936677	1.331257	0.012656	3.107874
163.394876	2940.959551	1.336262	0.012633	3.113102
163.781298	2951.961250	1.341266	0.012557	3.118351
164.070095	2962.972250	1.346271	0.012500	3.123581
164.626150	2973.992971	1.351276	0.012393	3.128843
164.883813	2985.024921	1.356280	0.012342	3.134061
165.189053	2996.035552	1.361285	0.012282	3.139267
165.456837	3007.051099	1.366290	0.012229	3.144461
165.780952	3018.080641	1.371295	0.012166	3.149660
166.126074	3029.075050	1.376299	0.012098	3.154838
166.549397	3040.103202	1.381304	0.012016	3.160033
166.800177	3051.135298	1.386309	0.011966	3.165198
167.185487	3062.136912	1.391314	0.011891	3.170359
167.321664	3073.140010	1.396318	0.011863	3.175478
167.842520	3084.174963	1.401323	0.011763	3.180656
168.566873	3095.132584	1.406328	0.011624	3.185816
169.032094	3106.192356	1.411332	0.011534	3.190981
169.195087	3117.249952	1.416337	0.011501	3.196095
169.789073	3128.225252	1.421342	0.011386	3.201221
170.283934	3139.233946	1.426347	0.011291	3.206341
170.737318	3150.270060	1.431351	0.011203	3.211460
171.165936	3161.285004	1.436356	0.011120	3.216557
171.805469	3172.275241	1.441361	0.010997	3.221663
172.036167	3183.340909	1.446366	0.010951	3.226741
172.221780	3194.361815	1.451370	0.010914	3.231784
172.598327	3205.340868	1.456375	0.010840	3.236826
172.899421	3216.375710	1.461380	0.010781	3.241875
173.338491	3227.380028	1.466384	0.010696	3.246921
173.835513	3238.400413	1.471389	0.010600	3.251973
174.030541	3249.427823	1.476394	0.010561	3.256981
174.533329	3260.437981	1.481399	0.010463	3.262014
174.775568	3271.465549	1.486403	0.010415	3.267013
175.283630	3282.473610	1.491408	0.010317	3.272030
175.579676	3293.481908	1.496413	0.010259	3.277011
175.693142	3304.545585	1.501417	0.010235	3.281987
175.897876	3315.532379	1.506422	0.010194	3.286932
176.656379	3326.523097	1.511427	0.010049	3.291942
176.965417	3337.551804	1.516432	0.009988	3.296904
177.301745	3348.585451	1.521436	0.009922	3.301865
177.491848	3359.607470	1.526441	0.009884	3.306794
177.800510	3370.596218	1.531446	0.009823	3.311716
178.110928	3381.632811	1.536451	0.009762	3.316651
178.341249	3392.648957	1.541455	0.009716	3.321561
178.745247	3403.669087	1.546460	0.009638	3.326486
179.030593	3414.669555	1.551465	0.009581	3.331381
179.370199	3425.702291	1.556469	0.009515	3.336289
179.805219	3436.701923	1.561474	0.009431	3.341188
180.307664	3447.720390	1.566479	0.009334	3.346096
180.745550	3458.734622	1.571484	0.009249	3.350986
181.312841	3469.758813	1.576488	0.009140	3.355890
181.518065	3480.790365	1.581493	0.009098	3.360745
181.801649	3491.821022	1.586498	0.009042	3.365602
182.017174	3502.803293	1.591503	0.008999	3.370423
182.485273	3513.797929	1.596507	0.008909	3.375273
182.901782	3524.849870	1.601512	0.008828	3.380135
183.176474	3535.863721	1.606517	0.008773	3.384955
183.435352	3546.893651	1.611521	0.008722	3.389774
183.516227	3557.910753	1.616526	0.008704	3.394559
183.972336	3568.896365	1.621531	0.008616	3.399369
184.200243	3579.932772	1.626536	0.008570	3.404166
184.545814	3590.960840	1.631540	0.008503	3.408967
184.782319	3601.953259	1.636545	0.008456	3.413733
184.814245	3612.981911	1.641550	0.008447	3.418483
185.169994	3623.980970	1.646555	0.008378	3.423252
185.739274	3635.009925	1.651559	0.008268	3.428053
186.049834	3645.993272	1.656564	0.008207	3.432797
186.524756	3657.054593	1.661569	0.008115	3.437587
186.648541	3668.053583	1.666573	0.008089	3.442302
187.267481	3679.058907	1.671578	0.007970	3.447072
187.670147	3690.085586	1.676583	0.007892	3.451819
187.997911	3701.091247	1.681588	0.007828	3.456541
188.246362	3712.124587	1.686592	0.007779	3.461259
188.532214	3723.151139	1.691597	0.007722	3.465973
188.709847	3734.158629	1.696602	0.007686	3.470659
189.052965	3745.154857	1.701606	0.007619	3.475353
189.422758	3756.186298	1.706611	0.007547	3.480059
190.026034	3767.184503	1.711616	0.007431	3.484771
190.308929	3778.234839	1.716621	0.007375	3.489462
190.356788	3789.251865	1.721625	0.007363	3.494105
190.539333	3800.270532	1.726630	0.007326	3.498759
191.040171	3811.233440	1.731635	0.007230	3.503419
191.214482	3822.305759	1.736640	0.007194	3.508081
191.566268	3833.290860	1.741644	0.007126	3.512721
191.885691	3844.318308	1.746649	0.007063	3.517369
192.146292	3855.336998	1.751654	0.007011	3.522000
192.509708	3866.342486	1.756658	0.006940	3.526631
192.938682	3877.368230	1.761663	0.006857	3.531272
193.293943	3888.359777	1.766668	0.006788	3.535884
193.673898	3899.393907	1.771673	0.006714	3.540511
193.946776	3910.403283	1.776677	0.006660	3.545109
194.329769	3921.415526	1.781682	0.006585	3.549715
194.768954	3932.437815	1.786687	0.006500	3.554325
195.218940	3943.461322	1.791692	0.006413	3.558930
195.494127	3954.486844	1.796696	0.006359	3.563511
195.759207	3965.505275	1.801701	0.006306	3.568082
196.153423	3976.471468	1.806706	0.006229	3.572640
196.498104	3987.529167	1.811710	0.006162	3.577224
196.868608	3998.529001	1.816715	0.006090	3.581781
197.125546	4009.551542	1.821720	0.006039	3.586329
197.334751	4020.585079	1.826725	0.005997	3.590871
197.689958	4031.576141	1.831729	0.005927	3.595405
197.985124	4042.576802	1.836734	0.005869	3.599931
198.400924	4053.624451	1.841739	0.005789	3.604484
198.621036	4064.637441	1.846744	0.005745	3.608995
199.055726	4075.658668	1.851748	0.005660	3.613527
199.258615	4086.658979	1.856753	0.005619	3.618020
199.786592	4097.678292	1.861758	0.005518	3.622550
200.152649	4108.762589	1.866762	0.005446	3.627083
200.524701	4119.744537	1.871767	0.005374	3.631570
200.636956	4130.782994	1.876772	0.005350	3.636046
200.804974	4141.800282	1.881777	0.005316	3.640514
201.184265	4152.795514	1.886781	0.005242	3.644990
201.449336	4163.827800	1.891786	0.005189	3.649463
201.816906	4174.815758	1.896791	0.005118	3.653924
202.123721	4185.854475	1.901795	0.005057	3.658393
202.272097	4196.894215	1.906800	0.005027	3.662840
202.597541	4207.899368	1.911805	0.004963	3.667287
202.767357	4218.881055	1.916810	0.004928	3.671702
203.012852	4229.926541	1.921814	0.004880	3.676146
203.328650	4240.917128	1.926819	0.004818	3.680569
204.003148	4251.914170	1.931824	0.004688	3.685027
205.257728	4262.914464	1.936829	0.004450	3.689542
205.714208	4273.969193	1.941833	0.004362	3.693989
206.233388	4284.975702	1.946838	0.004262	3.698418
206.654824	4296.007980	1.951843	0.004180	3.702842
206.916522	4307.040296	1.956847	0.004128	3.707244
207.247205	4318.020684	1.961852	0.004063	3.711628
207.605284	4329.053810	1.966857	0.003993	3.716029
207.889656	4340.058598	1.971862	0.003937	3.720407
208.301054	4351.103014	1.976866	0.003857	3.724808
208.552437	4362.098504	1.981871	0.003807	3.729168
208.687115	4373.104760	1.986876	0.003779	3.733516
209.162399	4384.113748	1.991881	0.003688	3.737894
209.432087	4395.157344	1.996885	0.003634	3.742259
209.746515	4406.169091	2.001890	0.003572	3.746611
210.044205	4417.158376	2.006895	0.003514	3.750948
