Wed Nov 23 18:09:14 2022

Number of Points = 2200
Depth (nm)	Load (µN)	Time (s)	Depth (V)	Load (V)
-4.692317	1.391643	0.000000	0.004232	1.046499
0.000000	7.244009	0.005005	0.003350	1.057097
2.886157	16.800533	0.010009	0.002806	1.071759
4.698853	27.761242	0.015014	0.002463	1.087584
6.194736	38.929403	0.020019	0.002180	1.103302
7.185118	50.177339	0.025024	0.001991	1.118657
8.062097	61.367193	0.030028	0.001824	1.133675
8.704679	72.539744	0.035033	0.001700	1.148363
9.348289	83.669350	0.040038	0.001577	1.162812
10.055858	94.762548	0.045043	0.001441	1.177067
10.639167	105.901697	0.050047	0.001329	1.191151
11.216414	117.025215	0.055052	0.001218	1.205048
11.895960	128.107025	0.060057	0.001088	1.218781
12.184925	139.281438	0.065061	0.001031	1.232301
12.877583	150.321600	0.070066	0.000898	1.245689
13.093985	161.478898	0.075071	0.000855	1.258869
13.747433	172.498868	0.080076	0.000729	1.271937
14.070256	183.636185	0.085080	0.000666	1.284868
14.467763	194.755847	0.090085	0.000589	1.297681
14.653630	205.887166	0.095090	0.000551	1.310295
15.319675	216.847460	0.100094	0.000423	1.322793
15.572667	227.980805	0.105099	0.000373	1.335199
16.118885	239.021392	0.110104	0.000268	1.347505
16.413660	250.129011	0.115109	0.000210	1.359673
16.782767	261.208015	0.120113	0.000138	1.371732
27.296947	269.976798	0.125118	-0.001837	1.385135
31.926086	282.633961	0.130123	-0.002709	1.400246
32.708225	294.249279	0.135128	-0.002858	1.412666
33.440457	305.435210	0.140132	-0.002999	1.424516
34.011096	316.532919	0.145137	-0.003108	1.436118
34.943574	327.527418	0.150142	-0.003286	1.447654
35.615308	338.648498	0.155146	-0.003415	1.459132
36.320998	349.685159	0.160151	-0.003550	1.470447
37.224223	360.726365	0.165156	-0.003722	1.481750
38.119989	371.778600	0.170161	-0.003893	1.492976
38.601962	382.914307	0.175165	-0.003986	1.504054
39.444912	393.921433	0.180170	-0.004147	1.515051
40.242409	404.962845	0.185175	-0.004300	1.525986
40.962316	416.081159	0.190180	-0.004437	1.536890
41.780095	427.082542	0.195184	-0.004594	1.547638
42.369083	438.176745	0.200189	-0.004707	1.558323
42.956546	449.233978	0.205194	-0.004820	1.568899
43.600429	460.307286	0.210198	-0.004943	1.579438
44.129687	471.357737	0.215203	-0.005045	1.589848
44.849595	482.374638	0.220208	-0.005183	1.600221
45.678838	493.401284	0.225213	-0.005342	1.610571
46.077885	504.548316	0.230217	-0.005419	1.620826
46.569167	515.557269	0.235222	-0.005514	1.630921
47.647013	526.508814	0.240227	-0.005719	1.641088
48.217987	537.616574	0.245232	-0.005829	1.651172
49.113813	548.656849	0.250236	-0.006000	1.661236
49.488333	559.738862	0.255241	-0.006073	1.671113
50.087623	570.790358	0.260246	-0.006188	1.680975
50.602021	581.815533	0.265250	-0.006287	1.690730
51.149353	592.896737	0.270255	-0.006393	1.700487
51.949630	603.860341	0.275260	-0.006546	1.710165
52.524036	614.962026	0.280265	-0.006656	1.719837
53.127810	625.981834	0.285269	-0.006772	1.729394
53.601853	637.062477	0.290274	-0.006864	1.738911
54.030255	648.095478	0.295279	-0.006947	1.748322
54.852878	659.099589	0.300283	-0.007104	1.757775
55.625911	670.134405	0.305288	-0.007252	1.767188
56.579623	681.157818	0.310293	-0.007433	1.776593
56.923636	692.261201	0.315298	-0.007501	1.785838
57.498668	703.302774	0.320302	-0.007611	1.795051
58.277335	714.264096	0.325307	-0.007760	1.804210
59.139108	725.343637	0.330312	-0.007925	1.813441
59.660430	736.404764	0.335317	-0.008025	1.822515
60.185336	747.455382	0.340321	-0.008126	1.831535
60.667864	758.493754	0.345326	-0.008220	1.840490
61.205860	769.502942	0.350331	-0.008323	1.849393
62.057036	780.521010	0.355335	-0.008486	1.858347
62.834799	791.569168	0.360340	-0.008635	1.867261
63.350386	802.645941	0.365345	-0.008734	1.876083
64.000129	813.644505	0.370350	-0.008859	1.884839
64.617236	824.689340	0.375354	-0.008977	1.893582
65.324045	835.710712	0.380359	-0.009113	1.902290
66.011199	846.760516	0.385364	-0.009244	1.910974
66.417206	857.826947	0.390369	-0.009323	1.919557
66.980575	868.833445	0.395373	-0.009432	1.928098
67.875140	879.829844	0.400378	-0.009602	1.936680
68.204161	890.937003	0.405383	-0.009667	1.945159
68.894456	901.920768	0.410387	-0.009799	1.953603
69.449346	912.962142	0.415392	-0.009906	1.962018
70.529287	923.934522	0.420397	-0.010111	1.970481
71.251154	935.011069	0.425402	-0.010249	1.978892
71.829628	946.079338	0.430406	-0.010361	1.987225
72.400752	957.095024	0.435411	-0.010470	1.995483
73.074440	968.148464	0.440416	-0.010600	2.003760
73.548083	979.147349	0.445421	-0.010691	2.011912
74.115446	990.225636	0.450425	-0.010800	2.020113
74.527917	1001.251741	0.455430	-0.010881	2.028203
74.815831	1012.291553	0.460435	-0.010937	2.036241
75.537874	1023.266574	0.465439	-0.011076	2.044307
76.071780	1034.350396	0.470444	-0.011178	2.052373
76.690190	1045.346448	0.475449	-0.011297	2.060365
77.078396	1056.419350	0.480454	-0.011373	2.068325
77.840834	1067.402950	0.485458	-0.011519	2.076281
78.270359	1078.469275	0.490463	-0.011602	2.084185
78.603526	1089.534714	0.495468	-0.011667	2.092035
79.094431	1100.521323	0.500472	-0.011762	2.099838
79.934015	1111.466225	0.505477	-0.011922	2.107666
80.750749	1122.567714	0.510482	-0.012078	2.115567
81.243639	1133.596299	0.515487	-0.012173	2.123313
81.709412	1144.637184	0.520491	-0.012264	2.131032
82.489590	1155.627524	0.525496	-0.012413	2.138762
82.911405	1166.700158	0.530501	-0.012495	2.146436
83.431197	1177.743320	0.535506	-0.012595	2.154086
84.005866	1188.710071	0.540510	-0.012705	2.161669
84.570185	1199.787326	0.545515	-0.012814	2.169298
84.971843	1210.831641	0.550520	-0.012892	2.176840
85.352785	1221.844311	0.555524	-0.012966	2.184331
85.935009	1232.842729	0.560529	-0.013078	2.191832
86.525267	1243.880667	0.565534	-0.013192	2.199335
86.884938	1254.931161	0.570539	-0.013262	2.206768
87.188123	1265.958179	0.575543	-0.013322	2.214149
87.970220	1276.937658	0.580548	-0.013471	2.221580
88.414541	1287.986391	0.585553	-0.013557	2.228957
88.970347	1299.048179	0.590558	-0.013664	2.236342
89.131827	1310.069755	0.595562	-0.013697	2.243591
89.773239	1321.054868	0.600567	-0.013820	2.250896
90.113266	1332.132239	0.605572	-0.013887	2.258173
90.670879	1343.105581	0.610576	-0.013994	2.265405
91.168528	1354.152890	0.615581	-0.014090	2.272649
91.623480	1365.173830	0.620586	-0.014178	2.279844
91.841083	1376.223830	0.625591	-0.014222	2.286984
92.524523	1387.211068	0.630595	-0.014353	2.294161
92.918827	1398.253215	0.635600	-0.014430	2.301289
93.413772	1409.272169	0.640605	-0.014525	2.308401
94.051350	1420.271334	0.645610	-0.014648	2.315508
94.657015	1431.321137	0.650614	-0.014764	2.322619
95.074041	1442.363220	0.655619	-0.014845	2.329664
95.568250	1453.388171	0.660624	-0.014940	2.336692
95.604260	1464.449215	0.665628	-0.014950	2.343627
96.398966	1475.365200	0.670633	-0.015102	2.350608
96.767709	1486.490492	0.675638	-0.015174	2.357610
97.205517	1497.470727	0.680643	-0.015259	2.364515
97.617536	1508.504651	0.685647	-0.015339	2.371429
97.874928	1519.544690	0.690652	-0.015390	2.378294
98.414348	1530.528618	0.695657	-0.015494	2.385162
98.761008	1541.593523	0.700661	-0.015561	2.392021
99.100640	1552.605915	0.705666	-0.015628	2.398827
99.534474	1563.627587	0.710671	-0.015712	2.405637
99.937243	1574.638696	0.715676	-0.015790	2.412416
100.576546	1585.655277	0.720680	-0.015913	2.419226
100.941190	1596.680529	0.725685	-0.015984	2.425968
101.388523	1607.737379	0.730690	-0.016071	2.432726
101.648397	1618.748019	0.735695	-0.016122	2.439400
102.145927	1629.738816	0.740699	-0.016218	2.446091
102.669314	1640.780744	0.745704	-0.016319	2.452799
102.957894	1651.832653	0.750709	-0.016376	2.459449
103.446076	1662.799332	0.755713	-0.016471	2.466069
103.897504	1673.880366	0.760718	-0.016558	2.472732
104.216828	1684.880742	0.765723	-0.016621	2.479303
104.766563	1695.874449	0.770728	-0.016726	2.485898
104.944881	1706.951760	0.775732	-0.016763	2.492452
105.318653	1717.950268	0.780737	-0.016836	2.498981
105.581252	1728.980010	0.785742	-0.016888	2.505490
106.123350	1739.972784	0.790747	-0.016992	2.512012
106.357020	1751.032885	0.795751	-0.017039	2.518499
106.796920	1762.018486	0.800756	-0.017124	2.524965
107.517179	1773.005290	0.805761	-0.017262	2.531467
108.147277	1784.083231	0.810765	-0.017383	2.537988
108.274894	1795.105864	0.815770	-0.017409	2.544367
108.774379	1806.121703	0.820775	-0.017506	2.550795
109.219914	1817.141740	0.825780	-0.017592	2.557199
109.395350	1828.186888	0.830784	-0.017628	2.563552
109.977962	1839.162611	0.835789	-0.017740	2.569923
110.184090	1850.289354	0.840794	-0.017781	2.576296
110.678113	1861.208645	0.845799	-0.017877	2.582588
111.289509	1872.235089	0.850803	-0.017994	2.588947
111.385525	1883.288276	0.855808	-0.018015	2.595211
111.881875	1894.291613	0.860813	-0.018111	2.601505
112.145989	1905.315754	0.865817	-0.018163	2.607753
112.894711	1916.301128	0.870822	-0.018306	2.614051
113.206598	1927.347773	0.875827	-0.018367	2.620290
113.616142	1938.365928	0.880832	-0.018447	2.626516
113.935388	1949.410687	0.885836	-0.018510	2.632725
114.369435	1960.409096	0.890841	-0.018594	2.638914
114.795975	1971.441939	0.895846	-0.018677	2.645107
115.175525	1982.459934	0.900850	-0.018751	2.651268
115.557313	1993.496278	0.905855	-0.018825	2.657426
115.985646	2004.475259	0.910860	-0.018908	2.663546
116.316633	2015.513219	0.915865	-0.018973	2.669667
116.618959	2026.545545	0.920869	-0.019032	2.675765
116.891300	2037.566069	0.925874	-0.019086	2.681839
117.418472	2048.576564	0.930879	-0.019188	2.687937
117.721277	2059.575730	0.935884	-0.019247	2.693976
118.052411	2070.605415	0.940888	-0.019312	2.700023
118.269603	2081.613159	0.945893	-0.019356	2.706025
118.770278	2092.647587	0.950898	-0.019452	2.712076
119.333347	2103.633196	0.955902	-0.019561	2.718098
119.684021	2114.685186	0.960907	-0.019629	2.724107
119.892287	2125.713697	0.965912	-0.019671	2.730065
120.436746	2136.705869	0.970917	-0.019776	2.736047
120.793633	2147.723799	0.975921	-0.019846	2.741999
121.095783	2158.771572	0.980926	-0.019905	2.747944
121.525916	2169.765992	0.985931	-0.019989	2.753869
121.958757	2180.781436	0.990936	-0.020072	2.759793
122.119682	2191.834792	0.995940	-0.020105	2.765679
122.421131	2202.866817	1.000945	-0.020165	2.771565
122.650241	2213.859996	1.005950	-0.020210	2.777406
123.098494	2224.859879	1.010954	-0.020297	2.783273
123.442316	2235.893481	1.015959	-0.020364	2.789129
123.954084	2246.914505	1.020964	-0.020463	2.794994
124.121461	2257.954771	1.025969	-0.020497	2.800800
124.629612	2268.933805	1.030973	-0.020595	2.806617
124.900903	2279.991190	1.035978	-0.020649	2.812425
125.205429	2291.001380	1.040983	-0.020709	2.818201
125.640132	2301.994794	1.045988	-0.020793	2.823978
126.157724	2313.010926	1.050992	-0.020893	2.829767
126.665763	2324.035675	1.055997	-0.020991	2.835548
127.190743	2335.072854	1.061002	-0.021092	2.841326
127.595877	2346.098515	1.066006	-0.021171	2.847067
128.007352	2357.091442	1.071011	-0.021251	2.852780
128.298926	2368.135323	1.076016	-0.021309	2.858490
128.626352	2379.128311	1.081021	-0.021373	2.864167
129.012125	2390.173281	1.086025	-0.021448	2.869869
129.516260	2401.162614	1.091030	-0.021545	2.875549
129.702394	2412.221546	1.096035	-0.021583	2.881204
130.179747	2423.214325	1.101039	-0.021675	2.886860
130.633939	2434.254211	1.106044	-0.021763	2.892524
130.806512	2445.257292	1.111049	-0.021798	2.898115
130.863906	2456.297870	1.116054	-0.021812	2.903697
131.298638	2467.289721	1.121058	-0.021896	2.909301
131.763687	2478.297128	1.126063	-0.021986	2.914907
132.208401	2489.328738	1.131068	-0.022072	2.920511
132.532227	2500.360876	1.136073	-0.022136	2.926086
132.842412	2511.377329	1.141077	-0.022197	2.931640
133.037375	2522.375560	1.146082	-0.022236	2.937158
133.535916	2533.387768	1.151087	-0.022332	2.942717
133.829351	2544.429594	1.156091	-0.022390	2.948250
134.297415	2555.438267	1.161096	-0.022480	2.953782
134.480214	2566.493365	1.166101	-0.022517	2.959284
134.788116	2577.466250	1.171106	-0.022578	2.964754
134.947084	2588.545345	1.176110	-0.022611	2.970244
135.342626	2599.496205	1.181115	-0.022687	2.975695
135.812273	2610.526594	1.186120	-0.022778	2.981187
136.329841	2621.530920	1.191125	-0.022878	2.986663
136.470374	2632.602024	1.196129	-0.022907	2.992105
137.002113	2643.544972	1.201134	-0.023010	2.997533
137.530575	2654.607962	1.206139	-0.023112	3.003008
137.851093	2665.624636	1.211143	-0.023175	3.008421
138.032879	2676.649819	1.216148	-0.023211	3.013808
138.294902	2687.668290	1.221153	-0.023263	3.019193
138.416980	2698.687391	1.226158	-0.023289	3.024549
138.979428	2709.704812	1.231162	-0.023397	3.029958
139.230415	2720.712716	1.236167	-0.023447	3.035308
139.680687	2731.728757	1.241172	-0.023534	3.040681
139.928496	2742.781052	1.246177	-0.023583	3.046033
140.153061	2753.776695	1.251181	-0.023628	3.051345
140.408819	2764.794187	1.256186	-0.023679	3.056662
140.574729	2775.773651	1.261191	-0.023713	3.061939
140.742460	2786.860013	1.266195	-0.023747	3.067258
141.095220	2797.823671	1.271200	-0.023816	3.072536
141.528309	2808.839174	1.276205	-0.023900	3.077841
141.690063	2819.894127	1.281210	-0.023933	3.083117
142.024969	2830.912281	1.286214	-0.023999	3.088390
142.448875	2841.892276	1.291219	-0.024081	3.093649
142.904619	2852.908437	1.296224	-0.024169	3.098921
143.181017	2863.947179	1.301228	-0.024224	3.104169
143.488490	2874.989761	1.306233	-0.024284	3.109414
143.802005	2885.965170	1.311238	-0.024346	3.114620
144.362559	2896.979666	1.316243	-0.024454	3.119869
144.647231	2908.033184	1.321247	-0.024510	3.125090
144.928207	2919.059839	1.326252	-0.024565	3.130288
145.096146	2930.038679	1.331257	-0.024599	3.135441
145.425648	2941.074094	1.336262	-0.024664	3.140633
145.636075	2952.065734	1.341266	-0.024706	3.145780
145.964374	2963.116355	1.346271	-0.024771	3.150962
146.210267	2974.093160	1.351276	-0.024819	3.156090
146.582781	2985.148842	1.356280	-0.024892	3.161263
146.903137	2996.151128	1.361285	-0.024955	3.166396
147.113952	3007.193417	1.366290	-0.024997	3.171524
147.551506	3018.153831	1.371295	-0.025082	3.176636
147.992763	3029.214767	1.376299	-0.025168	3.181787
148.308699	3040.226533	1.381304	-0.025230	3.186891
148.519509	3051.233721	1.386309	-0.025272	3.191970
148.867179	3062.261892	1.391314	-0.025340	3.197068
149.146603	3073.273177	1.396318	-0.025395	3.202142
149.511154	3084.295339	1.401323	-0.025466	3.207223
149.934514	3095.305316	1.406328	-0.025548	3.212299
150.467129	3106.293998	1.411332	-0.025651	3.217371
150.603108	3117.367734	1.416337	-0.025679	3.222422
150.817031	3128.360062	1.421342	-0.025722	3.227438
151.029275	3139.373645	1.426347	-0.025765	3.232456
151.473510	3150.374335	1.431351	-0.025851	3.237490
151.780847	3161.431310	1.436356	-0.025911	3.242524
152.239344	3172.419367	1.441361	-0.026000	3.247539
152.501572	3183.449329	1.446366	-0.026052	3.252539
152.870221	3194.429857	1.451370	-0.026124	3.257523
153.277067	3205.473009	1.456375	-0.026203	3.262532
153.638256	3216.481788	1.461380	-0.026273	3.267512
153.863595	3227.520763	1.466384	-0.026318	3.272481
154.038051	3238.534646	1.471389	-0.026354	3.277424
154.288192	3249.553531	1.476394	-0.026403	3.282372
154.596399	3260.552392	1.481399	-0.026464	3.287311
155.044764	3271.575227	1.486403	-0.026551	3.292270
155.837630	3282.559980	1.491408	-0.026702	3.297249
156.397011	3293.586964	1.496413	-0.026810	3.302209
156.707560	3304.632631	1.501417	-0.026871	3.307139
157.027864	3315.654161	1.506422	-0.026934	3.312052
157.400310	3326.642910	1.511427	-0.027006	3.316949
157.570781	3337.692724	1.516432	-0.027041	3.321841
157.992577	3348.695688	1.521436	-0.027123	3.326736
158.248096	3359.707543	1.526441	-0.027174	3.331608
158.273442	3370.733137	1.531446	-0.027181	3.336449
158.570626	3381.761536	1.536451	-0.027240	3.341319
158.879398	3392.755213	1.541455	-0.027300	3.346167
159.163476	3403.785678	1.546460	-0.027356	3.351022
159.565993	3414.780486	1.551465	-0.027435	3.355868
159.790551	3425.810034	1.556469	-0.027479	3.360700
160.206968	3436.840604	1.561474	-0.027560	3.365550
160.551558	3447.849378	1.566479	-0.027628	3.370374
161.225687	3458.820119	1.571484	-0.027757	3.375215
161.608375	3469.858534	1.576488	-0.027831	3.380042
162.035503	3480.909350	1.581493	-0.027914	3.384873
162.335381	3491.914979	1.586498	-0.027973	3.389663
162.618315	3502.915839	1.591503	-0.028029	3.394441
163.031484	3513.945505	1.596507	-0.028109	3.399241
163.336960	3524.944869	1.601512	-0.028169	3.404008
163.587995	3535.975819	1.606517	-0.028219	3.408775
163.970863	3546.966880	1.611521	-0.028294	3.413535
164.199096	3558.018763	1.616526	-0.028339	3.418295
164.512863	3569.009955	1.621531	-0.028401	3.423032
164.799739	3580.048266	1.626536	-0.028458	3.427780
165.055332	3591.033163	1.631540	-0.028508	3.432495
165.229797	3602.080045	1.636545	-0.028544	3.437220
165.586303	3613.071453	1.641550	-0.028613	3.441937
165.995902	3624.107030	1.646555	-0.028693	3.446672
166.345737	3635.120135	1.651559	-0.028761	3.451383
166.728145	3646.135229	1.656564	-0.028836	3.456093
166.946410	3657.136995	1.661569	-0.028879	3.460772
167.343488	3668.145406	1.666573	-0.028957	3.465468
167.762545	3679.184572	1.671578	-0.029038	3.470172
167.909490	3690.203962	1.676583	-0.029068	3.474831
168.178410	3701.225664	1.681588	-0.029122	3.479499
168.358645	3712.244297	1.686592	-0.029158	3.484148
168.842165	3723.251513	1.691597	-0.029252	3.488821
168.955245	3734.253553	1.696602	-0.029275	3.493444
169.340676	3745.272139	1.701606	-0.029351	3.498098
169.573238	3756.284615	1.706611	-0.029397	3.502726
170.082699	3767.296391	1.711616	-0.029495	3.507379
170.458321	3778.320680	1.716621	-0.029568	3.512016
170.807397	3789.337826	1.721625	-0.029637	3.516641
171.129565	3800.365828	1.726630	-0.029700	3.521261
171.546335	3811.355121	1.731635	-0.029781	3.525869
171.727349	3822.413977	1.736640	-0.029817	3.530474
172.116129	3833.376906	1.741644	-0.029893	3.535056
172.314429	3844.427048	1.746649	-0.029933	3.539647
172.728441	3855.418360	1.751654	-0.030013	3.544231
173.095076	3866.467365	1.756658	-0.030085	3.548829
173.212221	3877.471565	1.761663	-0.030110	3.553374
173.611947	3888.483039	1.766668	-0.030187	3.557947
173.797642	3899.501180	1.771673	-0.030225	3.562494
174.107522	3910.541341	1.776677	-0.030286	3.567057
174.435616	3921.501070	1.781682	-0.030350	3.571584
174.643409	3932.558389	1.786687	-0.030392	3.576131
174.969878	3943.547756	1.791692	-0.030456	3.580658
175.244607	3954.590421	1.796696	-0.030510	3.585195
175.441550	3965.575376	1.801701	-0.030550	3.589695
175.900521	3976.608732	1.806706	-0.030639	3.594237
176.291948	3987.615307	1.811710	-0.030715	3.598754
176.619633	3998.667659	1.816715	-0.030779	3.603278
176.988586	4009.653901	1.821720	-0.030851	3.607774
177.143366	4020.684865	1.826725	-0.030883	3.612259
177.615491	4031.669390	1.831729	-0.030974	3.616754
178.023145	4042.701335	1.836734	-0.031053	3.621255
178.328631	4053.713281	1.841739	-0.031113	3.625732
178.568534	4064.737861	1.846744	-0.031161	3.630201
178.696507	4075.771681	1.851748	-0.031188	3.634656
179.021921	4086.753047	1.856753	-0.031252	3.639106
179.314925	4097.806480	1.861758	-0.031309	3.643576
179.659578	4108.855471	1.866762	-0.031377	3.648044
179.986371	4119.855171	1.871767	-0.031441	3.652484
180.261826	4130.879703	1.876772	-0.031495	3.656924
180.639469	4141.870721	1.881777	-0.031569	3.661356
180.813619	4152.929552	1.886781	-0.031604	3.665788
181.130419	4163.897152	1.891786	-0.031666	3.670193
181.639607	4174.947901	1.896791	-0.031765	3.674646
182.027065	4185.928072	1.901795	-0.031840	3.679053
182.247296	4196.976436	1.906800	-0.031884	3.683464
182.480147	4208.016837	1.911805	-0.031931	3.687868
182.769131	4218.983481	1.916810	-0.031987	3.692243
183.094311	4230.024217	1.921814	-0.032051	3.696646
183.274104	4241.022957	1.926819	-0.032088	3.701012
183.718914	4252.040381	1.931824	-0.032174	3.705407
184.208415	4263.047010	1.936829	-0.032268	3.709798
184.291754	4274.078790	1.941833	-0.032287	3.714151
184.682147	4285.090149	1.946838	-0.032363	3.718523
185.082991	4296.111312	1.951843	-0.032441	3.722895
185.510847	4307.151538	1.956847	-0.032524	3.727271
185.616381	4318.108994	1.961852	-0.032546	3.731577
185.781646	4329.163528	1.966857	-0.032580	3.735922
186.073552	4340.152943	1.971862	-0.032638	3.740250
