Wed Nov 23 18:28:15 2022

Number of Points = 2200
Depth (nm)	Load (µN)	Time (s)	Depth (V)	Load (V)
0.000000	2.059506	0.000000	-0.036708	1.154434
0.973715	8.502982	0.005005	-0.036892	1.163012
2.273222	17.848059	0.010009	-0.037138	1.175288
3.417762	28.639110	0.015014	-0.037355	1.189145
4.395298	39.714098	0.020019	-0.037542	1.203113
4.966161	50.904997	0.025024	-0.037651	1.216879
5.354119	62.047947	0.030028	-0.037727	1.230355
5.800862	73.127967	0.035033	-0.037814	1.243636
6.047017	84.281184	0.040038	-0.037863	1.256776
6.403670	95.338680	0.045043	-0.037932	1.269717
6.828283	106.423106	0.050047	-0.038015	1.282585
6.917735	117.569776	0.055052	-0.038034	1.295258
7.197566	128.666907	0.060057	-0.038089	1.307830
7.521755	139.699666	0.065061	-0.038153	1.320229
7.759083	150.774592	0.070066	-0.038200	1.332523
8.140998	161.847221	0.075071	-0.038275	1.344760
12.460710	171.923387	0.080076	-0.039088	1.357352
15.380855	183.568978	0.085080	-0.039639	1.370958
16.288040	194.921314	0.090085	-0.039812	1.383348
17.351662	205.950271	0.095090	-0.040014	1.395349
18.841822	216.958891	0.100094	-0.040296	1.407386
20.215415	228.081660	0.105099	-0.040557	1.419394
21.472531	239.152681	0.110104	-0.040795	1.431204
22.316740	250.315820	0.115109	-0.040957	1.442860
23.219985	261.354545	0.120113	-0.041129	1.454318
24.296439	272.410635	0.125118	-0.041333	1.465765
24.991215	283.525717	0.130123	-0.041467	1.477046
25.666328	294.597814	0.135128	-0.041596	1.488191
26.185387	305.673959	0.140132	-0.041696	1.499203
27.019143	316.701373	0.145137	-0.041855	1.510196
27.503600	327.806486	0.150142	-0.041949	1.521064
28.468465	338.761389	0.155146	-0.042133	1.531875
29.375991	349.865596	0.160151	-0.042306	1.542732
30.028516	360.944554	0.165156	-0.042431	1.553402
30.630352	372.000462	0.170161	-0.042547	1.563962
31.205262	383.069824	0.175165	-0.042657	1.574453
31.740247	394.133944	0.180170	-0.042760	1.584857
32.455944	405.135885	0.185175	-0.042897	1.595195
33.080459	416.223525	0.190180	-0.043017	1.605514
33.552120	427.284316	0.195184	-0.043109	1.615694
34.095629	438.350975	0.200189	-0.043213	1.625838
35.147586	449.265077	0.205194	-0.043413	1.635944
35.673247	460.441366	0.210198	-0.043515	1.646054
36.264764	471.455653	0.215203	-0.043628	1.655980
37.295090	482.429803	0.220208	-0.043825	1.665947
38.110980	493.511007	0.225213	-0.043980	1.675882
38.511660	504.616864	0.230217	-0.044058	1.685652
39.516091	515.592584	0.235222	-0.044249	1.695437
40.073276	526.678337	0.240227	-0.044357	1.705125
40.868266	537.698461	0.245232	-0.044509	1.714773
41.690204	548.727387	0.250236	-0.044666	1.724382
42.459272	559.789381	0.255241	-0.044813	1.733950
43.056492	570.855421	0.260246	-0.044927	1.743417
43.731962	581.883675	0.265250	-0.045057	1.752825
44.207945	592.959492	0.270255	-0.045149	1.762163
44.891700	603.954064	0.275260	-0.045280	1.771445
45.781055	614.959055	0.280265	-0.045450	1.780746
46.865969	625.997488	0.285269	-0.045656	1.790081
47.445863	637.092343	0.290274	-0.045767	1.799270
48.158045	648.117592	0.295279	-0.045904	1.808393
48.674432	659.189934	0.300283	-0.046003	1.817453
49.223649	670.226062	0.305288	-0.046109	1.826447
49.925100	681.227222	0.310293	-0.046244	1.835412
50.594961	692.269843	0.315298	-0.046372	1.844357
51.316207	703.321993	0.320302	-0.046510	1.853280
52.087343	714.314325	0.325307	-0.046658	1.862127
52.982837	725.375039	0.330312	-0.046828	1.871019
53.713528	736.421160	0.335317	-0.046968	1.879812
54.085181	747.498141	0.340321	-0.047041	1.888492
54.662355	758.507423	0.345326	-0.047152	1.897134
55.285121	769.541179	0.350331	-0.047271	1.905768
55.913756	780.579909	0.355335	-0.047392	1.914368
56.384912	791.629266	0.360340	-0.047483	1.922896
57.111118	802.626524	0.365345	-0.047622	1.931414
57.660302	813.687686	0.370350	-0.047728	1.939895
58.377859	824.678325	0.375354	-0.047865	1.948331
58.981871	835.739180	0.380359	-0.047981	1.956752
59.654187	846.774324	0.385364	-0.048110	1.965136
60.333690	857.800027	0.390369	-0.048240	1.973479
60.899891	868.850134	0.395373	-0.048349	1.981776
61.336228	879.885391	0.400378	-0.048434	1.989994
61.985690	890.902390	0.405383	-0.048559	1.998218
62.564207	901.957038	0.410387	-0.048670	2.006418
63.030801	912.995912	0.415392	-0.048760	2.014545
63.321293	924.032371	0.420397	-0.048817	2.022594
63.991115	935.006961	0.425402	-0.048946	2.030660
64.873377	946.047085	0.430406	-0.049114	2.038792
65.513696	957.077942	0.435411	-0.049237	2.046827
66.036442	968.137586	0.440416	-0.049338	2.054821
66.641528	979.173466	0.445421	-0.049454	2.062787
67.214811	990.175880	0.450425	-0.049564	2.070692
67.819498	1001.217856	0.455430	-0.049681	2.078601
68.171484	1012.285209	0.460435	-0.049749	2.086438
68.927209	1023.253482	0.465439	-0.049894	2.094271
69.600514	1034.307401	0.470444	-0.050023	2.102116
70.029881	1045.364730	0.475449	-0.050106	2.109876
70.638258	1056.369209	0.480454	-0.050223	2.117612
71.376208	1067.390637	0.485458	-0.050364	2.125363
72.202468	1078.395177	0.490463	-0.050522	2.133093
72.758156	1089.472193	0.495468	-0.050629	2.140783
73.399885	1100.458606	0.500472	-0.050752	2.148403
74.103487	1111.524026	0.505477	-0.050887	2.156063
74.727457	1122.531973	0.510482	-0.051007	2.163639
75.382931	1133.563881	0.515487	-0.051133	2.171212
76.002361	1144.604286	0.520491	-0.051251	2.178755
76.671269	1155.601393	0.525496	-0.051380	2.186255
77.288670	1166.662095	0.530501	-0.051498	2.193759
77.641397	1177.719665	0.535506	-0.051567	2.201176
78.118008	1188.733064	0.540510	-0.051659	2.208567
78.507031	1199.747941	0.545515	-0.051735	2.215915
79.142326	1210.763751	0.550520	-0.051857	2.223292
79.718827	1221.790192	0.555524	-0.051968	2.230640
80.162736	1232.840476	0.560529	-0.052054	2.237949
80.675383	1243.830845	0.565534	-0.052153	2.245211
81.333052	1254.873752	0.570539	-0.052279	2.252514
81.770598	1265.939191	0.575543	-0.052364	2.259761
82.150164	1276.930686	0.580548	-0.052438	2.266924
82.640307	1287.953051	0.585553	-0.052533	2.274108
83.205983	1298.967095	0.590558	-0.052641	2.281280
83.630643	1310.006178	0.595562	-0.052724	2.288416
84.177708	1321.037943	0.600567	-0.052829	2.295550
84.647603	1332.057398	0.605572	-0.052920	2.302638
85.177128	1343.083105	0.610576	-0.053022	2.309720
85.542686	1354.109939	0.615581	-0.053093	2.316747
86.007528	1365.137157	0.620586	-0.053183	2.323774
86.558020	1376.152890	0.625591	-0.053289	2.330790
86.852130	1387.224826	0.630595	-0.053347	2.337766
87.054616	1398.225596	0.635600	-0.053388	2.344659
87.638297	1409.228412	0.640605	-0.053500	2.351611
88.026785	1420.255737	0.645610	-0.053576	2.358517
88.926347	1431.228305	0.650614	-0.053747	2.365473
89.343987	1442.326511	0.655619	-0.053829	2.372388
89.822871	1453.311731	0.660624	-0.053921	2.379226
90.444167	1464.336567	0.665628	-0.054040	2.386097
91.008199	1475.375584	0.670633	-0.054149	2.392946
91.560336	1486.385230	0.675638	-0.054255	2.399754
92.288596	1497.401874	0.680643	-0.054395	2.406582
92.710403	1508.475519	0.685647	-0.054477	2.413364
92.852338	1519.498072	0.690652	-0.054506	2.420041
93.300435	1530.487633	0.695657	-0.054593	2.426740
93.839818	1541.509632	0.700661	-0.054697	2.433458
94.207682	1552.542698	0.705666	-0.054769	2.440130
94.726606	1563.563450	0.710671	-0.054869	2.446806
95.209085	1574.582577	0.715676	-0.054962	2.453456
95.785515	1585.583760	0.720680	-0.055073	2.460095
96.179355	1596.652835	0.725685	-0.055149	2.466720
96.696223	1607.655518	0.730690	-0.055249	2.473313
96.943033	1618.696770	0.735695	-0.055298	2.479859
97.548242	1629.678231	0.740699	-0.055414	2.486420
98.114237	1640.726614	0.745704	-0.055523	2.492996
98.466188	1651.761750	0.750709	-0.055592	2.499506
99.031955	1662.746120	0.755713	-0.055701	2.506010
99.514766	1673.809048	0.760718	-0.055794	2.512527
99.863054	1684.802753	0.765723	-0.055862	2.518962
100.364717	1695.842830	0.770728	-0.055959	2.525435
100.793469	1706.853884	0.775732	-0.056042	2.531862
101.019781	1717.903952	0.780737	-0.056088	2.538257
101.319566	1728.911645	0.785742	-0.056147	2.544625
101.878218	1739.910110	0.790747	-0.056254	2.551019
102.414556	1750.933732	0.795751	-0.056358	2.557408
102.881209	1761.986941	0.800756	-0.056448	2.563784
103.328320	1772.955404	0.805761	-0.056534	2.570093
103.919018	1784.078927	0.810765	-0.056648	2.576500
104.413065	1795.018787	0.815770	-0.056743	2.582770
105.056091	1806.027189	0.820775	-0.056867	2.589090
105.397059	1817.091146	0.825780	-0.056934	2.595372
105.836627	1828.101789	0.830784	-0.057019	2.601626
106.118839	1839.128087	0.835789	-0.057074	2.607845
106.549180	1850.137153	0.840794	-0.057158	2.614066
106.868994	1861.155807	0.845799	-0.057221	2.620258
107.237463	1872.183483	0.850803	-0.057293	2.626449
107.687218	1883.197407	0.855808	-0.057380	2.632632
107.940782	1894.242026	0.860813	-0.057430	2.638783
108.367837	1905.239471	0.865817	-0.057513	2.644924
108.907547	1916.249982	0.870822	-0.057617	2.651077
109.328322	1927.297495	0.875827	-0.057699	2.657215
109.802961	1938.287843	0.880832	-0.057790	2.663318
110.037358	1949.338377	0.885836	-0.057837	2.669397
110.384818	1960.348824	0.890841	-0.057905	2.675460
110.945007	1971.363979	0.895846	-0.058013	2.681549
111.323576	1982.382236	0.900850	-0.058087	2.687594
111.918268	1993.414143	0.905855	-0.058201	2.693670
112.182174	2004.423332	0.910860	-0.058253	2.699663
112.512027	2015.458584	0.915865	-0.058318	2.705668
112.916460	2026.478455	0.920869	-0.058396	2.711664
113.195714	2037.500300	0.925874	-0.058451	2.717627
113.664570	2048.480134	0.930879	-0.058542	2.723586
114.111897	2059.501902	0.935884	-0.058629	2.729551
114.421102	2070.541849	0.940888	-0.058690	2.735489
114.697185	2081.563102	0.945893	-0.058744	2.741398
115.240946	2092.537048	0.950898	-0.058849	2.747315
115.668868	2103.586912	0.955902	-0.058932	2.753239
116.170295	2114.589072	0.960907	-0.059029	2.759137
116.464370	2125.628003	0.965912	-0.059087	2.765008
116.795988	2136.665995	0.970917	-0.059152	2.770872
117.327747	2147.633874	0.975921	-0.059254	2.776720
117.709148	2158.692031	0.980926	-0.059328	2.782578
118.239093	2169.675170	0.985931	-0.059431	2.788408
118.807772	2180.718421	0.990936	-0.059540	2.794264
119.104475	2191.756579	0.995940	-0.059598	2.800060
119.439252	2202.764073	1.000945	-0.059664	2.805835
119.825137	2213.793279	1.005950	-0.059739	2.811617
120.114774	2224.807842	1.010954	-0.059796	2.817364
120.649938	2235.795308	1.015959	-0.059899	2.823125
121.145361	2246.835736	1.020964	-0.059995	2.828895
121.252405	2257.880726	1.025969	-0.060018	2.834594
121.642089	2268.887661	1.030973	-0.060094	2.840306
122.152071	2279.888075	1.035978	-0.060192	2.846022
122.612042	2290.922345	1.040983	-0.060281	2.851736
122.935366	2301.920902	1.045988	-0.060344	2.857399
123.225298	2312.967888	1.050992	-0.060402	2.863071
123.573045	2323.977559	1.055997	-0.060470	2.868720
123.917905	2335.007773	1.061002	-0.060537	2.874369
124.363922	2345.997606	1.066006	-0.060623	2.880002
125.017114	2357.004796	1.071011	-0.060749	2.885664
125.537162	2368.060245	1.076016	-0.060849	2.891319
125.577709	2379.121836	1.081021	-0.060859	2.896892
125.774898	2390.077932	1.086025	-0.060899	2.902426
126.319244	2401.101342	1.091030	-0.061004	2.908035
126.821773	2412.095718	1.096035	-0.061101	2.913613
127.348838	2423.133690	1.101039	-0.061203	2.919205
127.810460	2434.157556	1.106044	-0.061292	2.924770
128.214267	2445.179700	1.111049	-0.061370	2.930314
128.497269	2456.198198	1.116054	-0.061426	2.935828
128.900531	2467.239086	1.121058	-0.061505	2.941361
129.177766	2478.234563	1.126063	-0.061559	2.946841
129.721510	2489.221387	1.131068	-0.061664	2.952347
130.102126	2500.264116	1.136073	-0.061738	2.957846
130.629974	2511.299847	1.141077	-0.061840	2.963353
130.860148	2522.319311	1.146082	-0.061886	2.968798
131.447234	2533.323004	1.151087	-0.061999	2.974277
131.948802	2544.316578	1.156091	-0.062096	2.979729
132.282617	2555.383291	1.161096	-0.062161	2.985181
132.597435	2566.385929	1.166101	-0.062223	2.990590
133.258523	2577.379279	1.171106	-0.062350	2.996035
133.744774	2588.415626	1.176110	-0.062444	3.001465
134.125479	2599.430033	1.181115	-0.062518	3.006859
134.525350	2610.440173	1.186120	-0.062596	3.012244
135.049566	2621.469466	1.191125	-0.062697	3.017647
135.303734	2632.490352	1.196129	-0.062747	3.022996
135.849128	2643.508297	1.201134	-0.062852	3.028377
136.224593	2654.513918	1.206139	-0.062925	3.033718
136.674038	2665.545956	1.211143	-0.063012	3.039073
136.835824	2676.577267	1.216148	-0.063046	3.044376
137.443886	2687.583416	1.221153	-0.063162	3.049722
137.910628	2698.569039	1.226158	-0.063253	3.055029
138.512221	2709.611642	1.231162	-0.063368	3.060372
138.936042	2720.616539	1.236167	-0.063450	3.065663
139.418836	2731.653056	1.241172	-0.063544	3.070968
139.468853	2742.688987	1.246177	-0.063556	3.076202
140.023212	2753.669820	1.251181	-0.063663	3.081473
140.464532	2764.692891	1.256186	-0.063748	3.086738
141.138509	2775.709629	1.261191	-0.063877	3.092023
141.536815	2786.723698	1.266195	-0.063955	3.097260
141.877520	2797.770496	1.271200	-0.064022	3.102495
142.180866	2808.778017	1.276205	-0.064081	3.107698
142.578327	2819.801982	1.281210	-0.064158	3.112913
142.791263	2830.822881	1.286214	-0.064201	3.118092
143.309606	2841.811479	1.291219	-0.064301	3.123289
143.631913	2852.852305	1.296224	-0.064364	3.128475
144.079334	2863.881167	1.301228	-0.064451	3.133664
144.241164	2874.878468	1.306233	-0.064484	3.138791
144.804991	2885.876097	1.311238	-0.064593	3.143963
145.166886	2896.920393	1.316243	-0.064663	3.149122
145.537038	2907.934094	1.321247	-0.064735	3.154259
145.840342	2918.953795	1.326252	-0.064795	3.159381
146.245424	2929.974934	1.331257	-0.064874	3.164509
146.662817	2940.984962	1.336262	-0.064955	3.169626
147.224202	2951.980867	1.341266	-0.065063	3.174746
147.679870	2963.005375	1.346271	-0.065151	3.179858
148.095894	2974.047994	1.351276	-0.065232	3.184964
148.411178	2985.071617	1.356280	-0.065294	3.190040
148.483294	2996.086952	1.361285	-0.065310	3.195071
148.894830	3007.083259	1.366290	-0.065390	3.200131
149.249076	3018.113277	1.371295	-0.065459	3.205191
149.926748	3029.107598	1.376299	-0.065589	3.210268
150.166749	3040.147023	1.381304	-0.065637	3.215301
150.445021	3051.144608	1.386309	-0.065692	3.220312
150.856630	3062.164790	1.391314	-0.065772	3.225342
151.200437	3073.204787	1.396318	-0.065839	3.230365
151.710830	3084.189451	1.401323	-0.065938	3.235376
152.110555	3095.211633	1.406328	-0.066015	3.240382
152.676520	3106.243260	1.411332	-0.066124	3.245406
153.045924	3117.251977	1.416337	-0.066196	3.250387
153.357582	3128.284713	1.421342	-0.066257	3.255363
153.851330	3139.254590	1.426347	-0.066353	3.260327
154.393768	3150.325138	1.431351	-0.066457	3.265334
154.657502	3161.327223	1.436356	-0.066510	3.270267
155.136031	3172.344657	1.441361	-0.066602	3.275227
155.392139	3183.372978	1.446366	-0.066653	3.280156
155.922357	3194.385236	1.451370	-0.066755	3.285105
156.557058	3205.358814	1.456375	-0.066877	3.290043
157.113084	3216.396602	1.461380	-0.066984	3.294991
157.600129	3227.422266	1.466384	-0.067078	3.299918
157.965803	3238.440453	1.471389	-0.067149	3.304819
158.346845	3249.456097	1.476394	-0.067224	3.309713
158.877022	3260.479663	1.481399	-0.067326	3.314622
159.321497	3271.475949	1.486403	-0.067412	3.319501
159.615291	3282.531396	1.491408	-0.067470	3.324380
159.998234	3293.524662	1.496413	-0.067544	3.329236
160.358095	3304.534422	1.501417	-0.067615	3.334089
160.553001	3315.566174	1.506422	-0.067654	3.338924
161.100250	3326.576737	1.511427	-0.067759	3.343786
161.660707	3337.566387	1.516432	-0.067867	3.348633
162.060053	3348.619161	1.521436	-0.067945	3.353481
162.302960	3359.624090	1.526441	-0.067993	3.358282
162.679043	3370.653894	1.531446	-0.068067	3.363103
162.796239	3381.668981	1.536451	-0.068091	3.367879
163.328761	3392.669141	1.541455	-0.068194	3.372692
163.681447	3403.679216	1.546460	-0.068263	3.377481
164.259906	3414.698901	1.551465	-0.068374	3.382294
164.844400	3425.716450	1.556469	-0.068486	3.387100
165.413325	3436.731260	1.561474	-0.068596	3.391896
165.882726	3447.751254	1.566479	-0.068687	3.396676
166.228113	3458.775687	1.571484	-0.068754	3.401436
166.483612	3469.793327	1.576488	-0.068805	3.406175
166.761130	3480.829972	1.581493	-0.068860	3.410919
166.907429	3491.815968	1.586498	-0.068890	3.415619
167.419778	3502.835619	1.591503	-0.068989	3.420369
167.722580	3513.861369	1.596507	-0.069048	3.425091
168.355592	3524.873297	1.601512	-0.069170	3.429840
168.447653	3535.905068	1.606517	-0.069190	3.434526
168.713316	3546.922624	1.611521	-0.069242	3.439221
169.166072	3557.907695	1.616526	-0.069330	3.443917
169.731069	3568.944685	1.621531	-0.069439	3.448642
169.897853	3579.951075	1.626536	-0.069473	3.453301
170.402215	3590.974867	1.631540	-0.069570	3.457999
170.727605	3601.964343	1.636545	-0.069634	3.462657
171.197744	3612.995524	1.641550	-0.069725	3.467342
171.450699	3624.029934	1.646555	-0.069775	3.471997
171.932411	3635.018387	1.651559	-0.069868	3.476653
172.471602	3646.048179	1.656564	-0.069972	3.481326
172.621391	3657.088736	1.661569	-0.070003	3.485954
172.872195	3668.077634	1.666573	-0.070053	3.490564
173.203124	3679.105260	1.671578	-0.070118	3.495194
173.526365	3690.107842	1.676583	-0.070181	3.499807
174.035655	3701.140168	1.681588	-0.070279	3.504446
174.159643	3712.150496	1.686592	-0.070305	3.509027
174.586197	3723.172540	1.691597	-0.070388	3.513641
174.925002	3734.200746	1.696602	-0.070454	3.518241
175.405356	3745.175187	1.701606	-0.070547	3.522829
175.909007	3756.205788	1.706611	-0.070644	3.527437
176.219199	3767.226901	1.711616	-0.070705	3.532012
176.792028	3778.238120	1.716621	-0.070816	3.536607
177.092054	3789.279105	1.721625	-0.070875	3.541178
177.137896	3800.288067	1.726630	-0.070886	3.545702
177.635636	3811.266697	1.731635	-0.070982	3.550257
177.870463	3822.306790	1.736640	-0.071029	3.554803
178.429127	3833.315673	1.741644	-0.071136	3.559366
178.528270	3844.358211	1.746649	-0.071158	3.563886
179.019907	3855.371909	1.751654	-0.071253	3.568431
179.290082	3866.358806	1.756658	-0.071306	3.572935
179.628050	3877.390867	1.761663	-0.071372	3.577460
179.800788	3888.396682	1.766668	-0.071407	3.581950
180.386962	3899.401802	1.771673	-0.071520	3.586479
180.542934	3910.445648	1.776677	-0.071552	3.590971
181.281861	3921.436503	1.781682	-0.071694	3.595499
181.699651	3932.441370	1.786687	-0.071775	3.599992
182.200805	3943.492422	1.791692	-0.071871	3.604507
182.481217	3954.503927	1.796696	-0.071927	3.608977
182.777469	3965.508854	1.801701	-0.071985	3.613440
182.990953	3976.568180	1.806706	-0.072028	3.617911
183.282704	3987.536719	1.811710	-0.072085	3.622348
183.530235	3998.563339	1.816715	-0.072135	3.626798
183.875187	4009.582728	1.821720	-0.072202	3.631250
183.995460	4020.590798	1.826725	-0.072227	3.635668
184.571549	4031.594882	1.831729	-0.072338	3.640127
184.683014	4042.637997	1.836734	-0.072362	3.644548
185.145412	4053.626039	1.841739	-0.072451	3.648977
185.464430	4064.676411	1.846744	-0.072514	3.653412
185.813429	4075.662748	1.851748	-0.072582	3.657818
186.219559	4086.677581	1.856753	-0.072661	3.662236
186.804136	4097.731099	1.861758	-0.072773	3.666683
187.049325	4108.759436	1.866762	-0.072822	3.671079
187.363240	4119.795922	1.871767	-0.072884	3.675480
187.560409	4130.787033	1.876772	-0.072923	3.679846
188.059999	4141.802097	1.881777	-0.073020	3.684247
188.239378	4152.838736	1.886781	-0.073056	3.688618
188.601736	4163.828446	1.891786	-0.073127	3.692985
189.073629	4174.870567	1.896791	-0.073218	3.697378
189.359819	4185.856692	1.901795	-0.073275	3.701725
189.633309	4196.892692	1.906800	-0.073329	3.706084
190.002351	4207.899709	1.911805	-0.073401	3.710437
190.320537	4218.910768	1.916810	-0.073463	3.714782
190.860449	4229.925744	1.921814	-0.073567	3.719145
190.986786	4240.967899	1.926819	-0.073594	3.723471
191.432368	4251.952883	1.931824	-0.073680	3.727803
191.625865	4263.007803	1.936829	-0.073719	3.732131
191.819856	4274.004190	1.941833	-0.073758	3.736432
192.158918	4284.995494	1.946838	-0.073825	3.740740
192.322773	4296.054293	1.951843	-0.073858	3.745052
192.555310	4307.056074	1.956847	-0.073904	3.749343
193.032022	4318.051785	1.961852	-0.073997	3.753652
193.158762	4329.064345	1.966857	-0.074023	3.757927
193.557744	4340.098502	1.971862	-0.074101	3.762232
