Wed Nov 23 17:12:02 2022

Number of Points = 2200
Depth (nm)	Load (µN)	Time (s)	Depth (V)	Load (V)
-1.329319	0.528982	0.000000	0.082224	0.797663
0.000000	6.381222	0.005005	0.081974	0.809396
1.368133	15.012015	0.010009	0.081715	0.825997
2.736019	25.367138	0.015014	0.081456	0.845304
3.893766	36.374298	0.020019	0.081236	0.865164
4.925551	47.602984	0.025024	0.081039	0.884870
5.623328	58.945213	0.030028	0.080905	0.904128
6.383857	70.173519	0.035033	0.080760	0.922838
7.039456	81.425342	0.040038	0.080634	0.941151
7.745187	92.651238	0.045043	0.080499	0.959102
8.356171	103.866349	0.050047	0.080382	0.976653
8.909645	115.085021	0.055052	0.080275	0.993867
9.341953	126.297160	0.060057	0.080191	1.010712
9.915536	137.446724	0.065061	0.080081	1.027266
10.304555	148.642584	0.070066	0.080005	1.043525
10.867947	159.772493	0.075071	0.079896	1.059533
11.110474	170.965938	0.080076	0.079848	1.075225
11.726944	182.062909	0.085080	0.079730	1.090749
12.168771	193.213396	0.090085	0.079644	1.106039
12.710800	204.338002	0.095090	0.079540	1.121135
13.153560	215.471385	0.100094	0.079454	1.135994
13.691168	226.596781	0.105099	0.079350	1.150695
14.071989	237.720575	0.110104	0.079276	1.165135
14.719390	248.801968	0.115109	0.079152	1.179468
14.939645	259.970282	0.120113	0.079108	1.193542
15.523753	271.043656	0.125118	0.078995	1.207498
15.908155	282.172372	0.130123	0.078920	1.221273
20.351225	291.883153	0.135128	0.078084	1.234976
36.558278	301.491265	0.140132	0.075041	1.253505
37.229852	314.940678	0.145137	0.074911	1.269610
37.909021	326.435935	0.150142	0.074781	1.283259
39.088471	337.526242	0.155146	0.074557	1.296509
40.025610	348.687590	0.160151	0.074378	1.309604
41.468304	359.662575	0.165156	0.074105	1.322567
42.233968	370.841521	0.170161	0.073959	1.335356
43.353000	381.872697	0.175165	0.073746	1.348002
44.171107	393.006959	0.180170	0.073590	1.360522
45.232952	404.052290	0.185175	0.073388	1.372928
46.372409	415.090024	0.190180	0.073171	1.385244
47.510847	426.190761	0.195184	0.072955	1.397517
48.087145	437.331402	0.200189	0.072844	1.409510
49.322970	448.313391	0.205194	0.072609	1.421485
50.225937	459.424267	0.210198	0.072437	1.433369
51.380009	470.458498	0.215203	0.072218	1.445168
52.364494	481.577187	0.220208	0.072030	1.456895
53.201134	492.634906	0.225213	0.071871	1.468412
53.915298	503.734476	0.230217	0.071734	1.479837
54.943688	514.737603	0.235222	0.071538	1.491191
55.755392	525.838679	0.240227	0.071383	1.502477
56.689811	536.874305	0.245232	0.071205	1.513659
57.616787	547.935824	0.250236	0.071028	1.524780
58.760677	558.963831	0.255241	0.070811	1.535863
59.302632	570.105084	0.260246	0.070707	1.546768
60.381060	581.074099	0.265250	0.070501	1.557615
61.110449	592.200188	0.270255	0.070362	1.568417
62.170344	603.206185	0.275260	0.070160	1.579143
63.089093	614.257158	0.280265	0.069985	1.589790
64.145625	625.329523	0.285269	0.069784	1.600432
64.907603	636.385728	0.290274	0.069638	1.610891
65.951104	647.443093	0.295279	0.069440	1.621376
66.591319	658.513245	0.300283	0.069317	1.631673
67.408587	669.535032	0.305288	0.069161	1.641919
68.494297	680.560449	0.310293	0.068954	1.652190
69.437993	691.619038	0.315298	0.068775	1.662381
70.114934	702.715122	0.320302	0.068645	1.672459
71.011242	713.730154	0.325307	0.068474	1.682474
72.051568	724.751249	0.330312	0.068276	1.692478
72.864776	735.854974	0.335317	0.068121	1.702426
73.523082	746.887815	0.340321	0.067994	1.712206
74.619892	757.875255	0.345326	0.067786	1.722025
75.118028	769.026721	0.350331	0.067690	1.731747
76.240710	779.970688	0.355335	0.067476	1.741425
76.904812	791.063800	0.360340	0.067349	1.751039
77.619234	802.125146	0.365345	0.067212	1.760588
78.164584	813.176187	0.370350	0.067107	1.770027
78.946239	824.195104	0.375354	0.066958	1.779458
79.772229	835.187484	0.380359	0.066800	1.788830
80.724709	846.268275	0.385364	0.066618	1.798262
81.338305	857.316160	0.390369	0.066501	1.807519
82.071026	868.380252	0.395373	0.066360	1.816777
82.512658	879.422505	0.400378	0.066275	1.825887
83.471279	890.380507	0.405383	0.066092	1.835030
84.336931	901.459298	0.410387	0.065927	1.844197
85.124658	912.506986	0.415392	0.065776	1.853273
85.894913	923.555414	0.420397	0.065629	1.862299
86.215568	934.646131	0.425402	0.065566	1.871191
86.622800	945.653632	0.430406	0.065487	1.879999
87.372001	956.659589	0.435411	0.065344	1.888858
88.499744	967.630687	0.440416	0.065130	1.897750
89.456017	978.693600	0.445421	0.064947	1.906626
90.058347	989.807593	0.450425	0.064832	1.915405
90.685159	1000.809748	0.455430	0.064711	1.924064
91.063470	1011.884795	0.460435	0.064638	1.932673
91.846116	1022.862679	0.465439	0.064488	1.941277
92.830909	1033.885437	0.470444	0.064300	1.949930
93.391688	1044.965819	0.475449	0.064192	1.958477
93.998723	1056.002105	0.480454	0.064076	1.966965
94.495847	1067.053777	0.485458	0.063980	1.975399
95.130770	1078.055150	0.490463	0.063858	1.983796
95.785101	1089.105975	0.495468	0.063732	1.992199
96.466148	1100.084736	0.500472	0.063602	2.000519
97.393399	1111.153869	0.505477	0.063425	2.008934
97.647364	1122.269750	0.510482	0.063375	2.017177
98.461076	1133.188709	0.515487	0.063219	2.025384
99.166000	1144.237085	0.520491	0.063084	2.033624
99.794637	1155.294436	0.525496	0.062964	2.041818
100.363147	1166.328458	0.530501	0.062854	2.049948
101.024434	1177.347637	0.535506	0.062727	2.058057
101.547400	1188.379291	0.540510	0.062627	2.066109
102.709241	1199.357653	0.545515	0.062406	2.074248
103.497571	1210.421162	0.550520	0.062255	2.082324
104.593226	1221.416872	0.555524	0.062047	2.090395
105.022611	1232.539840	0.560529	0.061964	2.098364
105.395246	1243.562118	0.565534	0.061891	2.106218
106.000056	1254.550461	0.570539	0.061775	2.114074
106.382160	1265.628288	0.575543	0.061700	2.121911
107.056190	1276.605352	0.580548	0.061571	2.129717
107.868236	1287.624347	0.585553	0.061416	2.137557
108.584814	1298.667093	0.590558	0.061279	2.145361
109.421358	1309.680021	0.595562	0.061119	2.153144
109.989944	1320.734572	0.600567	0.061010	2.160866
110.660256	1331.771007	0.605572	0.060881	2.168570
111.045678	1342.836333	0.610576	0.060806	2.176201
111.726326	1353.821758	0.615581	0.060676	2.183819
112.231678	1364.843420	0.620586	0.060578	2.191395
112.758085	1375.907690	0.625591	0.060477	2.198977
113.370610	1386.880840	0.630595	0.060359	2.206492
113.901598	1397.960132	0.635600	0.060257	2.214034
114.469542	1408.949758	0.640605	0.060147	2.221498
115.338301	1419.959277	0.645610	0.059982	2.229018
115.640494	1431.052564	0.650614	0.059922	2.236441
116.270271	1442.034125	0.655619	0.059801	2.243839
116.695240	1453.094963	0.660624	0.059719	2.251219
117.327169	1464.100065	0.665628	0.059597	2.258583
117.975642	1475.117749	0.670633	0.059473	2.265936
118.475030	1486.167367	0.675638	0.059377	2.273252
118.888611	1497.170332	0.680643	0.059296	2.280496
119.473716	1508.197952	0.685647	0.059184	2.287770
120.099779	1519.235387	0.690652	0.059064	2.295036
120.595732	1530.248128	0.695657	0.058968	2.302235
120.912735	1541.308849	0.700661	0.058906	2.309404
121.621693	1552.275326	0.705666	0.058770	2.316573
121.961830	1563.358326	0.710671	0.058703	2.323717
122.766882	1574.318880	0.715676	0.058549	2.330858
123.269738	1585.400500	0.720680	0.058452	2.337991
123.924010	1596.377468	0.725685	0.058327	2.345068
124.691245	1607.409460	0.730690	0.058180	2.352181
125.306866	1618.459912	0.735695	0.058062	2.359252
125.675226	1629.491649	0.740699	0.057990	2.366239
126.350819	1640.486192	0.745704	0.057861	2.373246
126.825664	1651.536998	0.750709	0.057769	2.380226
127.338279	1662.551364	0.755713	0.057670	2.387170
127.829080	1673.587629	0.760718	0.057575	2.394103
128.658961	1684.546846	0.765723	0.057417	2.401037
129.314383	1695.637922	0.770728	0.057291	2.407996
129.787196	1706.672206	0.775732	0.057199	2.414864
130.272587	1717.651480	0.780737	0.057106	2.421681
130.844293	1728.686321	0.785742	0.056996	2.428530
131.336545	1739.726109	0.790747	0.056901	2.435346
131.929886	1750.737105	0.795751	0.056786	2.442146
132.195866	1761.790401	0.800756	0.056734	2.448887
132.884102	1772.778476	0.805761	0.056602	2.455654
133.147115	1783.834456	0.810765	0.056550	2.462360
133.678248	1794.842940	0.815770	0.056447	2.469071
134.089023	1805.864557	0.820775	0.056368	2.475748
134.695041	1816.863547	0.825780	0.056251	2.482431
135.090972	1827.923780	0.830784	0.056174	2.489092
135.622223	1838.941175	0.835789	0.056072	2.495736
135.952096	1849.961085	0.840794	0.056007	2.502325
136.724658	1860.955988	0.845799	0.055859	2.508966
137.177346	1871.993020	0.850803	0.055772	2.515553
137.661940	1883.024536	0.855808	0.055678	2.522126
137.937354	1894.080034	0.860813	0.055624	2.528656
138.513868	1905.037489	0.865817	0.055513	2.535169
139.022164	1916.094574	0.870822	0.055415	2.541709
139.782413	1927.081869	0.875827	0.055269	2.548240
140.152394	1938.145361	0.880832	0.055197	2.554725
140.574831	1949.155155	0.885836	0.055115	2.561172
140.824274	1960.210382	0.890841	0.055066	2.567597
141.531316	1971.210469	0.895846	0.054930	2.574059
141.957675	1982.243033	0.900850	0.054848	2.580471
142.695076	1993.207612	0.905855	0.054706	2.586885
143.176729	2004.281036	0.910860	0.054613	2.593299
143.565831	2015.276229	0.915865	0.054538	2.599635
143.855764	2026.322374	0.920869	0.054480	2.605966
144.423740	2037.327277	0.925874	0.054371	2.612309
145.008696	2048.309780	0.930879	0.054259	2.618627
145.542761	2059.342547	0.935884	0.054156	2.624949
145.886902	2070.385377	0.940888	0.054088	2.631227
146.559399	2081.361792	0.945893	0.053960	2.637512
146.671057	2092.456232	0.950898	0.053936	2.643747
147.276309	2103.404999	0.955902	0.053820	2.649974
147.781936	2114.455533	0.960907	0.053722	2.656225
148.314585	2125.457866	0.965912	0.053619	2.662439
148.846355	2136.476194	0.970917	0.053517	2.668648
149.337245	2147.524288	0.975921	0.053422	2.674851
149.657731	2158.545860	0.980926	0.053359	2.680995
150.365335	2169.533811	0.985931	0.053224	2.687174
150.876005	2180.584277	0.990936	0.053125	2.693339
151.201909	2191.597901	0.995940	0.053061	2.699437
151.400394	2202.635500	1.000945	0.053021	2.705512
151.834531	2213.644832	1.005950	0.052937	2.711599
152.185883	2224.660878	1.010954	0.052868	2.717662
153.041963	2235.624299	1.015959	0.052705	2.723769
153.665889	2246.705665	1.020964	0.052585	2.729886
154.227310	2257.693781	1.025969	0.052477	2.735928
154.809273	2268.717807	1.030973	0.052365	2.741980
155.378200	2279.750732	1.035978	0.052256	2.748021
155.770141	2290.781721	1.040983	0.052179	2.754017
156.307410	2301.789296	1.045988	0.052076	2.760012
156.595368	2312.815605	1.050992	0.052019	2.765963
157.166800	2323.860868	1.055997	0.051909	2.771957
157.375416	2334.865498	1.061002	0.051867	2.777857
157.855164	2345.865979	1.066006	0.051775	2.783787
158.440450	2356.893458	1.071011	0.051662	2.789736
158.907187	2367.903139	1.076016	0.051572	2.795643
159.158453	2378.975519	1.081021	0.051522	2.801535
159.554574	2389.951103	1.086025	0.051445	2.807388
159.942528	2400.988260	1.091030	0.051369	2.813259
160.516724	2411.968394	1.096035	0.051259	2.819118
161.094137	2422.993744	1.101039	0.051148	2.824990
161.723301	2434.045198	1.106044	0.051027	2.830871
162.151284	2445.048668	1.111049	0.050944	2.836682
162.676908	2456.074964	1.116054	0.050842	2.842508
163.150717	2467.083442	1.121058	0.050751	2.848305
163.563910	2478.124638	1.126063	0.050671	2.854097
163.880218	2489.140218	1.131068	0.050608	2.859849
164.438667	2500.135034	1.136073	0.050501	2.865617
164.914264	2511.167327	1.141077	0.050409	2.871379
165.263578	2522.210863	1.146082	0.050341	2.877116
165.639055	2533.207929	1.151087	0.050268	2.882821
166.086196	2544.232623	1.156091	0.050181	2.888540
166.348963	2555.277716	1.161096	0.050129	2.894229
166.708302	2566.269268	1.166101	0.050059	2.899895
167.203582	2577.260658	1.171106	0.049963	2.905571
167.765825	2588.315686	1.176110	0.049855	2.911278
168.071842	2599.328038	1.181115	0.049795	2.916913
168.598774	2610.328999	1.186120	0.049693	2.922565
168.957893	2621.369173	1.191125	0.049623	2.928200
169.384653	2632.353995	1.196129	0.049540	2.933806
169.802721	2643.403948	1.201134	0.049459	2.939433
170.168496	2654.424340	1.206139	0.049388	2.945027
170.771586	2665.436192	1.211143	0.049272	2.950641
171.078909	2676.463584	1.216148	0.049211	2.956208
171.537964	2687.462857	1.221153	0.049123	2.961773
171.940723	2698.491047	1.226158	0.049044	2.967333
172.254914	2709.495691	1.231162	0.048983	2.972858
172.727905	2720.533405	1.236167	0.048891	2.978412
173.209580	2731.531027	1.241172	0.048798	2.983938
173.832903	2742.556596	1.246177	0.048678	2.989488
174.225546	2753.586454	1.251181	0.048602	2.994996
174.742591	2764.593780	1.256186	0.048502	3.000501
175.266259	2775.605306	1.261191	0.048401	3.005998
175.739254	2786.639503	1.266195	0.048310	3.011489
176.103648	2797.642974	1.271200	0.048239	3.016939
176.689032	2808.655147	1.276205	0.048126	3.022415
176.839018	2819.723565	1.281210	0.048095	3.027846
177.346577	2830.708463	1.286214	0.047997	3.033278
177.558952	2841.741225	1.291219	0.047955	3.038680
178.098822	2852.728466	1.296224	0.047851	3.044098
178.351896	2863.790223	1.301228	0.047800	3.049501
178.701178	2874.779855	1.306233	0.047732	3.054873
179.029042	2885.805318	1.311238	0.047668	3.060250
179.573725	2896.809736	1.316243	0.047563	3.065639
179.886443	2907.827436	1.321247	0.047501	3.070991
180.429263	2918.844843	1.326252	0.047397	3.076366
180.698659	2929.890640	1.331257	0.047344	3.081707
181.197491	2940.888931	1.336262	0.047247	3.087048
181.561782	2951.891283	1.341266	0.047176	3.092363
181.930535	2962.939773	1.346271	0.047104	3.097691
182.332452	2973.936230	1.351276	0.047026	3.102989
182.740114	2984.952186	1.356280	0.046947	3.108289
183.035492	2995.989722	1.361285	0.046889	3.113574
183.579880	3006.981227	1.366290	0.046784	3.118863
183.786392	3018.023863	1.371295	0.046742	3.124120
184.320168	3029.059425	1.376299	0.046639	3.129410
184.865035	3040.003019	1.381304	0.046535	3.134649
185.547794	3051.063508	1.386309	0.046404	3.139954
185.908752	3062.089339	1.391314	0.046333	3.145189
186.331184	3073.103196	1.396318	0.046251	3.150417
186.527947	3084.106112	1.401323	0.046212	3.155601
187.018008	3095.132045	1.406328	0.046117	3.160827
187.375044	3106.155561	1.411332	0.046047	3.166025
187.950821	3117.178368	1.416337	0.045936	3.171244
188.035636	3128.184477	1.421342	0.045918	3.176380
188.782404	3139.183624	1.426347	0.045775	3.181594
189.353325	3150.222006	1.431351	0.045665	3.186794
189.607490	3161.245357	1.436356	0.045615	3.191935
190.026393	3172.253570	1.441361	0.045533	3.197083
190.540964	3183.263598	1.446366	0.045434	3.202237
190.806500	3194.318295	1.451370	0.045381	3.207369
191.325288	3205.305124	1.456375	0.045281	3.212496
191.514929	3216.326784	1.461380	0.045243	3.217586
191.967022	3227.341688	1.466384	0.045156	3.222700
192.122292	3238.365805	1.471389	0.045124	3.227771
192.598296	3249.386254	1.476394	0.045032	3.232875
192.883442	3260.375148	1.481399	0.044975	3.237930
193.271448	3271.432643	1.486403	0.044900	3.243023
193.537103	3282.436865	1.491408	0.044847	3.248067
193.846681	3293.449919	1.496413	0.044786	3.253113
194.056782	3304.452604	1.501417	0.044744	3.258134
194.485240	3315.489592	1.506422	0.044661	3.263191
194.949072	3326.473877	1.511427	0.044571	3.268220
195.448266	3337.513121	1.516432	0.044475	3.273271
195.849439	3348.521859	1.521436	0.044397	3.278288
196.469628	3359.538481	1.526441	0.044278	3.283329
196.854578	3370.567095	1.531446	0.044203	3.288337
197.360595	3381.597746	1.536451	0.044105	3.293353
197.713198	3392.592009	1.541455	0.044036	3.298327
197.838319	3403.629810	1.546460	0.044010	3.303282
198.042517	3414.652657	1.551465	0.043969	3.308234
198.568771	3425.635414	1.556469	0.043868	3.313202
198.981228	3436.643049	1.561474	0.043788	3.318158
199.467968	3447.682940	1.566479	0.043694	3.323131
199.710998	3458.712768	1.571484	0.043645	3.328061
200.069305	3469.718005	1.576488	0.043575	3.332987
200.351944	3480.735949	1.581493	0.043519	3.337902
200.993069	3491.726750	1.586498	0.043396	3.342843
201.168380	3502.772933	1.591503	0.043361	3.347742
201.556674	3513.789403	1.596507	0.043285	3.352647
201.901501	3524.804869	1.601512	0.043218	3.357540
202.278463	3535.799244	1.606517	0.043144	3.362420
202.727965	3546.827939	1.611521	0.043057	3.367317
203.323740	3557.846179	1.616526	0.042943	3.372220
203.493740	3568.858820	1.621531	0.042908	3.377061
203.793535	3579.898117	1.626536	0.042849	3.381923
204.056987	3590.896509	1.631540	0.042797	3.386755
204.291087	3601.935591	1.636545	0.042750	3.391594
204.618429	3612.923610	1.641550	0.042686	3.396416
205.169183	3623.937615	1.646555	0.042580	3.401269
205.366214	3634.994121	1.651559	0.042540	3.406091
205.985307	3645.955024	1.656564	0.042422	3.410915
206.339166	3656.982265	1.661569	0.042352	3.415729
206.837166	3668.000390	1.666573	0.042256	3.420550
207.374389	3679.023613	1.671578	0.042153	3.425370
207.672916	3690.058257	1.676583	0.042094	3.430161
207.961337	3701.048251	1.681588	0.042037	3.434924
208.305836	3712.096371	1.686592	0.041970	3.439711
208.549228	3723.107445	1.691597	0.041921	3.444465
209.075690	3734.129142	1.696602	0.041820	3.449249
209.447586	3745.101381	1.701606	0.041747	3.453988
209.891916	3756.147974	1.706611	0.041661	3.458760
210.209227	3767.172129	1.711616	0.041599	3.463501
210.772838	3778.155428	1.716621	0.041490	3.468247
211.229349	3789.191187	1.721625	0.041402	3.472997
211.771426	3800.200530	1.726630	0.041298	3.477738
211.962986	3811.226168	1.731635	0.041259	3.482439
212.343827	3822.256132	1.736640	0.041185	3.487157
212.698600	3833.240633	1.741644	0.041115	3.491847
213.215640	3844.271120	1.746649	0.041016	3.496568
213.601767	3855.294404	1.751654	0.040941	3.501265
214.178772	3866.313206	1.756658	0.040830	3.505975
214.290103	3877.320350	1.761663	0.040806	3.510621
214.709958	3888.336663	1.766668	0.040724	3.515299
215.119784	3899.347711	1.771673	0.040645	3.519968
215.632065	3910.359986	1.776677	0.040546	3.524643
215.851985	3921.427445	1.781682	0.040502	3.529302
216.144764	3932.404723	1.786687	0.040444	3.533924
216.495144	3943.408673	1.791692	0.040376	3.538559
216.640293	3954.458381	1.796696	0.040346	3.543183
217.040774	3965.439893	1.801701	0.040268	3.547801
217.436329	3976.450189	1.806706	0.040191	3.552425
217.771515	3987.482513	1.811710	0.040125	3.557045
218.332274	3998.479788	1.816715	0.040017	3.561669
218.643951	4009.518438	1.821720	0.039956	3.566277
218.948206	4020.536655	1.826725	0.039896	3.570870
219.244850	4031.540390	1.831729	0.039838	3.575449
219.600469	4042.553979	1.836734	0.039769	3.580034
219.814772	4053.593497	1.841739	0.039726	3.584607
220.234253	4064.577753	1.846744	0.039644	3.589174
220.420534	4075.623786	1.851748	0.039607	3.593736
220.851887	4086.634285	1.856753	0.039523	3.598304
221.136759	4097.683932	1.861758	0.039467	3.602865
221.534484	4108.704676	1.866762	0.039389	3.607422
221.849862	4119.706732	1.871767	0.039327	3.611956
222.361486	4130.743153	1.876772	0.039229	3.616520
222.708254	4141.726150	1.881777	0.039161	3.621038
223.182403	4152.772811	1.886781	0.039069	3.625590
223.437219	4163.765496	1.891786	0.039019	3.630091
223.775127	4174.803766	1.896791	0.038953	3.634613
224.027575	4185.817989	1.901795	0.038902	3.639111
224.509117	4196.827662	1.906800	0.038809	3.643626
224.787418	4207.852829	1.911805	0.038754	3.648120
225.170656	4218.858649	1.916810	0.038680	3.652612
225.542140	4229.867547	1.921814	0.038607	3.657098
226.073072	4240.870627	1.926819	0.038505	3.661593
226.270533	4251.916786	1.931824	0.038465	3.666064
226.719755	4262.920325	1.936829	0.038378	3.670540
226.953759	4273.963283	1.941833	0.038332	3.675002
227.250339	4284.946601	1.946838	0.038273	3.679443
227.708913	4295.975681	1.951843	0.038184	3.683913
228.124607	4306.983013	1.956847	0.038104	3.688364
228.271765	4317.997885	1.961852	0.038073	3.692785
228.671508	4329.035779	1.966857	0.037996	3.697236
228.887380	4340.018780	1.971862	0.037952	3.701640
229.483471	4351.054422	1.976866	0.037838	3.706100
229.542427	4362.063614	1.981871	0.037824	3.710488
230.169113	4373.043113	1.986876	0.037704	3.714918
230.394151	4384.113378	1.991881	0.037659	3.719337
230.803685	4395.119060	1.996885	0.037579	3.723744
230.960961	4406.120916	2.001890	0.037547	3.728118
231.224142	4417.147807	2.006895	0.037495	3.732508
