Wed Nov 23 19:06:18 2022

Number of Points = 2200
Depth (nm)	Load (µN)	Time (s)	Depth (V)	Load (V)
-1.208872	1.355872	0.000000	-0.039691	1.160923
0.000000	8.372417	0.005005	-0.039920	1.170273
1.124784	17.940307	0.010009	-0.040133	1.182665
2.091873	28.756358	0.015014	-0.040317	1.196382
3.097467	39.805702	0.020019	-0.040509	1.210241
4.050804	50.926671	0.025024	-0.040690	1.224006
4.854384	62.017669	0.030028	-0.040844	1.237517
5.552782	73.165393	0.035033	-0.040978	1.250902
6.330212	84.234340	0.040038	-0.041126	1.264088
6.887964	95.382388	0.045043	-0.041234	1.277136
7.506524	106.451502	0.050047	-0.041353	1.289987
8.246916	117.573610	0.055052	-0.041494	1.302821
8.578210	128.689171	0.060057	-0.041559	1.315356
8.947160	139.755766	0.065061	-0.041631	1.327734
9.627576	150.769050	0.070066	-0.041762	1.340062
10.126034	161.874164	0.075071	-0.041858	1.352305
10.594370	172.961880	0.080076	-0.041949	1.364408
11.179326	184.023449	0.085080	-0.042061	1.376422
11.593460	195.119321	0.090085	-0.042141	1.388302
11.885884	206.208565	0.095090	-0.042199	1.400028
12.320893	217.265276	0.100094	-0.042283	1.411676
12.848136	228.306213	0.105099	-0.042385	1.423246
13.295925	239.371663	0.110104	-0.042472	1.434719
13.766121	250.458986	0.115109	-0.042563	1.446131
14.284614	261.510850	0.120113	-0.042663	1.457435
14.775981	272.551650	0.125118	-0.042758	1.468631
15.129615	283.651116	0.130123	-0.042827	1.479751
15.697024	294.671734	0.135128	-0.042936	1.490786
16.110453	305.770403	0.140132	-0.043016	1.501761
16.260728	316.855969	0.145137	-0.043047	1.512553
16.845270	327.857115	0.150142	-0.043160	1.523337
16.958049	338.968295	0.155146	-0.043184	1.533988
17.335627	350.008229	0.160151	-0.043257	1.544588
18.635518	360.726880	0.165156	-0.043504	1.555124
46.471772	367.560600	0.170161	-0.048729	1.570804
46.894179	382.731397	0.175165	-0.048812	1.584971
47.362627	394.178161	0.180170	-0.048902	1.595625
48.285602	405.178206	0.185175	-0.049078	1.605951
49.211003	416.251007	0.190180	-0.049255	1.616276
49.992316	427.332803	0.195184	-0.049404	1.626497
51.064366	438.308321	0.200189	-0.049608	1.636652
51.930309	449.402665	0.205194	-0.049773	1.646783
52.829878	460.448506	0.210198	-0.049945	1.656820
53.664106	471.482417	0.215203	-0.050104	1.666766
54.729064	482.513605	0.220208	-0.050307	1.676721
55.791168	493.559859	0.225213	-0.050509	1.686628
56.509419	504.674445	0.230217	-0.050646	1.696432
57.327576	515.653124	0.235222	-0.050802	1.706093
58.515654	526.666385	0.240227	-0.051028	1.715839
59.473787	537.738745	0.245232	-0.051211	1.725511
60.490681	548.785444	0.250236	-0.051404	1.735125
61.389634	559.844870	0.255241	-0.051576	1.744661
62.072601	570.905238	0.260246	-0.051706	1.754082
63.024989	581.917536	0.265250	-0.051888	1.763491
63.900567	592.980533	0.270255	-0.052055	1.772870
65.045517	603.953452	0.275260	-0.052272	1.782202
66.128729	615.020520	0.280265	-0.052478	1.791544
67.113922	626.074691	0.285269	-0.052666	1.800799
67.957489	637.143835	0.290274	-0.052827	1.809978
68.425954	648.222457	0.295279	-0.052918	1.819013
69.567319	659.154220	0.300283	-0.053135	1.828073
70.336440	670.274056	0.305288	-0.053282	1.837135
71.304699	681.257576	0.310293	-0.053466	1.846098
72.252758	692.319512	0.315298	-0.053647	1.855074
72.919538	703.392452	0.320302	-0.053775	1.863939
73.674346	714.405395	0.325307	-0.053919	1.872738
74.472629	725.451719	0.330312	-0.054071	1.881533
75.492650	736.434171	0.335317	-0.054266	1.890297
76.337709	747.514853	0.340321	-0.054427	1.899050
76.996789	758.552389	0.345326	-0.054553	1.907679
77.867691	769.591909	0.350331	-0.054719	1.916326
78.708863	780.604291	0.355335	-0.054880	1.924906
79.559772	791.664914	0.360340	-0.055042	1.933486
80.209481	802.691659	0.365345	-0.055167	1.941951
81.305479	813.683375	0.370350	-0.055375	1.950467
81.853792	824.774584	0.375354	-0.055481	1.958880
82.654677	835.780070	0.380359	-0.055634	1.967257
83.237759	846.862539	0.385364	-0.055746	1.975599
84.268297	857.814031	0.390369	-0.055942	1.983924
84.879415	868.907955	0.395373	-0.056060	1.992211
85.812585	879.886067	0.400378	-0.056237	2.000461
86.454764	890.983915	0.405383	-0.056361	2.008690
87.334439	901.976179	0.410387	-0.056528	2.016868
88.110144	913.011924	0.415392	-0.056677	2.025019
88.929173	924.039216	0.420397	-0.056833	2.033141
89.544628	935.097169	0.425402	-0.056951	2.041202
90.370271	946.096077	0.430406	-0.057109	2.049241
91.074976	957.152969	0.435411	-0.057244	2.057260
91.918856	968.161927	0.440416	-0.057405	2.065247
92.880333	979.162565	0.445421	-0.057588	2.073225
93.495578	990.280985	0.450425	-0.057706	2.081172
93.860701	1001.303017	0.455430	-0.057778	2.088962
94.434679	1012.330588	0.460435	-0.057888	2.096776
94.928383	1023.353542	0.465439	-0.057983	2.104539
95.781627	1034.319421	0.470444	-0.058146	2.112318
96.568653	1045.405474	0.475449	-0.058297	2.120135
97.241421	1056.412679	0.480454	-0.058426	2.127843
98.127778	1067.443292	0.485458	-0.058595	2.135587
98.690521	1078.493223	0.490463	-0.058703	2.143243
99.450135	1089.509213	0.495468	-0.058848	2.150892
100.037789	1100.555071	0.500472	-0.058961	2.158496
100.780003	1111.556683	0.505477	-0.059103	2.166078
101.426085	1122.613184	0.510482	-0.059227	2.173648
101.933319	1133.647345	0.515487	-0.059325	2.181145
102.862251	1144.624644	0.520491	-0.059502	2.188673
103.577888	1155.672295	0.525496	-0.059639	2.196174
104.277191	1166.705455	0.530501	-0.059773	2.203636
105.109243	1177.713415	0.535506	-0.059932	2.211086
105.827226	1188.756207	0.540510	-0.060069	2.218508
106.598932	1199.769584	0.545515	-0.060217	2.225897
107.304811	1210.823353	0.550520	-0.060352	2.233273
108.182689	1221.797699	0.555524	-0.060520	2.240611
108.821254	1232.896163	0.560529	-0.060642	2.247953
109.313300	1243.934322	0.565534	-0.060737	2.255200
109.888267	1254.921465	0.570539	-0.060848	2.262409
110.563694	1265.943179	0.575543	-0.060977	2.269639
111.100270	1276.984062	0.580548	-0.061081	2.276828
111.840860	1287.994925	0.585553	-0.061222	2.284018
112.395348	1299.035939	0.590558	-0.061329	2.291165
112.979397	1310.055711	0.595562	-0.061442	2.298283
113.411702	1321.093120	0.600567	-0.061525	2.305357
114.284684	1332.054667	0.605572	-0.061692	2.312455
114.848736	1343.157101	0.610576	-0.061800	2.319554
115.382406	1354.154175	0.615581	-0.061903	2.326559
115.980641	1365.200130	0.620586	-0.062018	2.333587
116.266039	1376.235163	0.625591	-0.062075	2.340522
116.958420	1387.194162	0.630595	-0.062207	2.347473
117.628835	1398.270729	0.635600	-0.062336	2.354471
118.168673	1409.263203	0.640605	-0.062440	2.361370
118.858996	1420.304267	0.645610	-0.062572	2.368309
119.394954	1431.340833	0.650614	-0.062675	2.375194
120.142036	1442.318247	0.655619	-0.062818	2.382065
120.934022	1453.369316	0.660624	-0.062970	2.388970
121.361072	1464.409212	0.665628	-0.063052	2.395775
121.918299	1475.423970	0.670633	-0.063160	2.402571
122.289754	1486.473897	0.675638	-0.063232	2.409332
123.087834	1497.458000	0.680643	-0.063385	2.416119
123.641706	1508.492923	0.685647	-0.063491	2.422869
124.292198	1519.496833	0.690652	-0.063616	2.429600
124.708230	1530.553825	0.695657	-0.063697	2.436298
125.358673	1541.575483	0.700661	-0.063822	2.443003
125.838071	1552.584969	0.705666	-0.063914	2.449648
126.318392	1563.623451	0.710671	-0.064007	2.456293
126.867261	1574.627154	0.715676	-0.064113	2.462912
127.496876	1585.652453	0.720680	-0.064234	2.469542
127.927939	1596.686099	0.725685	-0.064317	2.476121
128.580625	1607.702699	0.730690	-0.064443	2.482714
129.082211	1618.721482	0.735695	-0.064539	2.489262
129.578953	1629.767570	0.740699	-0.064635	2.495808
130.014995	1640.790081	0.745704	-0.064720	2.502311
130.623288	1651.779104	0.750709	-0.064837	2.508810
130.886982	1662.851048	0.755713	-0.064889	2.515276
131.426204	1673.817064	0.760718	-0.064993	2.521715
132.061603	1684.872440	0.765723	-0.065115	2.528207
132.744790	1695.864521	0.770728	-0.065246	2.534655
133.322469	1706.904059	0.775732	-0.065357	2.541094
133.813213	1717.924757	0.780737	-0.065452	2.547489
134.184071	1728.973826	0.785742	-0.065524	2.553863
134.591989	1739.973205	0.790747	-0.065603	2.560199
135.224780	1750.976027	0.795751	-0.065725	2.566562
135.760537	1762.046197	0.800756	-0.065828	2.572930
136.114611	1773.087756	0.805761	-0.065897	2.579233
136.762465	1784.042409	0.810765	-0.066022	2.585524
137.218181	1795.089503	0.815770	-0.066110	2.591818
137.677485	1806.117230	0.820775	-0.066199	2.598085
138.025800	1817.110217	0.825780	-0.066267	2.604299
138.641654	1828.141361	0.830784	-0.066385	2.610566
139.290505	1839.148628	0.835789	-0.066510	2.616810
139.710150	1850.205502	0.840794	-0.066591	2.623027
140.441567	1861.154336	0.845799	-0.066731	2.629224
140.776312	1872.264984	0.850803	-0.066797	2.635426
141.149428	1883.258306	0.855808	-0.066869	2.641555
141.722480	1894.258449	0.860813	-0.066980	2.647708
142.068580	1905.313995	0.865817	-0.067047	2.653838
142.596310	1916.301165	0.870822	-0.067149	2.659948
142.896302	1927.348698	0.875827	-0.067208	2.666037
143.421585	1938.337964	0.880832	-0.067309	2.672119
144.087224	1949.369478	0.885836	-0.067437	2.678235
144.571039	1960.380293	0.890841	-0.067530	2.684293
145.060973	1971.423345	0.895846	-0.067625	2.690357
145.588342	1982.428080	0.900850	-0.067727	2.696392
146.173414	1993.421421	0.905855	-0.067839	2.702418
146.877813	2004.473386	0.910860	-0.067974	2.708482
147.276263	2015.496414	0.915865	-0.068052	2.714464
147.736693	2026.517795	0.920869	-0.068141	2.720443
148.079520	2037.552383	0.925874	-0.068208	2.726396
148.252092	2048.585790	0.930879	-0.068243	2.732307
148.729436	2059.535463	0.935884	-0.068335	2.738211
149.305871	2070.553127	0.940888	-0.068446	2.744155
149.868527	2081.589690	0.945893	-0.068554	2.750094
150.130064	2092.641444	0.950898	-0.068606	2.755978
150.422663	2103.637520	0.955902	-0.068664	2.761825
151.122948	2114.635798	0.960907	-0.068798	2.767728
151.585179	2125.670732	0.965912	-0.068887	2.773598
151.823394	2136.703952	0.970917	-0.068935	2.779419
152.233111	2147.700072	0.975921	-0.069014	2.785235
152.774919	2158.736128	0.980926	-0.069119	2.791082
153.495454	2169.715889	0.985931	-0.069257	2.796916
154.107189	2180.756226	0.990936	-0.069374	2.802751
154.514600	2191.785419	0.995940	-0.069453	2.808535
155.150286	2202.800378	1.000945	-0.069575	2.814337
155.755326	2213.811409	1.005950	-0.069692	2.820120
156.052395	2224.866988	1.010954	-0.069750	2.825864
156.256460	2235.892719	1.015959	-0.069791	2.831567
156.638074	2246.888584	1.020964	-0.069866	2.837271
157.097683	2257.901300	1.025969	-0.069955	2.842984
157.604032	2268.916829	1.030973	-0.070052	2.848694
158.095580	2279.938184	1.035978	-0.070147	2.854394
158.641321	2290.948928	1.040983	-0.070252	2.860085
159.109100	2301.976062	1.045988	-0.070343	2.865761
159.634298	2313.010465	1.050992	-0.070444	2.871438
159.851589	2324.021544	1.055997	-0.070488	2.877044
160.398337	2335.017190	1.061002	-0.070593	2.882682
160.820585	2346.071866	1.066006	-0.070675	2.888320
161.385991	2357.093702	1.071011	-0.070784	2.893952
161.709034	2368.088465	1.076016	-0.070847	2.899522
162.040717	2379.115834	1.081021	-0.070912	2.905100
162.308022	2390.150047	1.086025	-0.070965	2.910660
162.664240	2401.162947	1.091030	-0.071035	2.916212
163.413937	2412.148401	1.096035	-0.071178	2.921799
163.854702	2423.197510	1.101039	-0.071263	2.927361
164.340735	2434.182628	1.106044	-0.071357	2.932887
164.875103	2445.222299	1.111049	-0.071460	2.938436
165.105237	2456.252447	1.116054	-0.071506	2.943925
165.529281	2467.285247	1.121058	-0.071588	2.949434
165.970347	2478.264238	1.126063	-0.071674	2.954908
166.377297	2489.308087	1.131068	-0.071753	2.960399
166.687327	2500.313677	1.136073	-0.071814	2.965847
167.396890	2511.333499	1.141077	-0.071950	2.971350
167.750513	2522.343170	1.146082	-0.072019	2.976786
168.400774	2533.364712	1.151087	-0.072144	2.982261
168.698227	2544.386386	1.156091	-0.072202	2.987674
169.096622	2555.411542	1.161096	-0.072280	2.993094
169.568586	2566.419593	1.166101	-0.072371	2.998507
169.952401	2577.460965	1.171106	-0.072446	3.003912
170.409008	2588.464017	1.176110	-0.072534	3.009300
170.727156	2599.484098	1.181115	-0.072597	3.014667
171.113479	2610.496646	1.186120	-0.072672	3.020030
171.666782	2621.509830	1.191125	-0.072778	3.025407
172.166275	2632.539119	1.196129	-0.072875	3.030775
172.515584	2643.566823	1.201134	-0.072943	3.036111
172.874910	2654.568231	1.206139	-0.073013	3.041427
173.186569	2665.600857	1.211143	-0.073074	3.046741
173.476726	2676.614925	1.216148	-0.073132	3.052034
173.964800	2687.609320	1.221153	-0.073226	3.057337
174.350144	2698.635419	1.226158	-0.073301	3.062630
174.733853	2709.678211	1.231162	-0.073376	3.067922
175.007800	2720.683267	1.236167	-0.073430	3.073172
175.678889	2731.682432	1.241172	-0.073558	3.078465
175.964787	2742.712529	1.246177	-0.073615	3.083710
176.600353	2753.740003	1.251181	-0.073737	3.088994
176.883333	2764.735631	1.256186	-0.073793	3.094204
177.287705	2775.762893	1.261191	-0.073871	3.099437
177.708365	2786.779097	1.266195	-0.073953	3.104658
178.115008	2797.819092	1.271200	-0.074032	3.109880
178.325050	2808.826845	1.276205	-0.074074	3.115051
179.007573	2819.829590	1.281210	-0.074205	3.120275
179.477117	2830.839499	1.286214	-0.074296	3.125465
179.890668	2841.904121	1.291219	-0.074376	3.130663
180.082544	2852.887508	1.296224	-0.074415	3.135786
180.568495	2863.895431	1.301228	-0.074509	3.140951
180.906651	2874.942893	1.306233	-0.074575	3.146105
181.358940	2885.927456	1.311238	-0.074662	3.151238
181.823006	2896.951374	1.316243	-0.074752	3.156382
182.219461	2907.989026	1.321247	-0.074829	3.161514
182.483124	2919.005487	1.326252	-0.074882	3.166611
182.956782	2930.010229	1.331257	-0.074973	3.171722
183.336466	2941.010037	1.336262	-0.075047	3.176810
183.870150	2952.056295	1.341266	-0.075150	3.181931
184.348160	2963.052863	1.346271	-0.075242	3.187014
184.782762	2974.084175	1.351276	-0.075327	3.192099
184.971060	2985.118983	1.356280	-0.075365	3.197145
185.427987	2996.095810	1.361285	-0.075453	3.202192
185.626433	3007.163715	1.366290	-0.075493	3.207238
185.988034	3018.155259	1.371295	-0.075564	3.212263
186.203762	3029.168436	1.376299	-0.075607	3.217270
186.939578	3040.152328	1.381304	-0.075748	3.222324
187.307236	3051.204003	1.386309	-0.075819	3.227353
187.677416	3062.215638	1.391314	-0.075892	3.232357
187.982624	3073.230689	1.396318	-0.075952	3.237345
188.507199	3084.224489	1.401323	-0.076053	3.242345
188.861394	3095.292993	1.406328	-0.076122	3.247348
189.267076	3106.272672	1.411332	-0.076201	3.252311
189.584461	3117.300385	1.416337	-0.076263	3.257276
189.920700	3128.323042	1.421342	-0.076329	3.262233
190.364765	3139.334134	1.426347	-0.076415	3.267191
190.942317	3150.332070	1.431351	-0.076526	3.272153
191.215709	3161.383246	1.436356	-0.076580	3.277093
191.675162	3172.376565	1.441361	-0.076669	3.282022
192.057223	3183.407465	1.446366	-0.076743	3.286951
192.574425	3194.413390	1.451370	-0.076843	3.291879
192.902400	3205.434065	1.456375	-0.076907	3.296781
193.234661	3216.456783	1.461380	-0.076973	3.301678
193.579833	3227.466970	1.466384	-0.077040	3.306564
194.056447	3238.477946	1.471389	-0.077132	3.311459
194.415484	3249.501868	1.476394	-0.077202	3.316338
194.746038	3260.537580	1.481399	-0.077267	3.321211
195.027139	3271.539465	1.486403	-0.077323	3.326056
195.399948	3282.548293	1.491408	-0.077395	3.330908
195.658244	3293.573524	1.496413	-0.077446	3.335746
196.087927	3304.588358	1.501417	-0.077530	3.340594
196.383564	3315.606957	1.506422	-0.077588	3.345419
196.899126	3326.614594	1.511427	-0.077687	3.350260
197.075439	3337.650141	1.516432	-0.077723	3.355065
197.590891	3348.642080	1.521436	-0.077823	3.359884
197.919592	3359.683757	1.526441	-0.077887	3.364696
198.238725	3370.706589	1.531446	-0.077950	3.369491
198.557924	3381.678719	1.536451	-0.078012	3.374258
199.229441	3392.708538	1.541455	-0.078141	3.379085
199.747277	3403.726349	1.546460	-0.078241	3.383881
200.141983	3414.749423	1.551465	-0.078318	3.388658
200.332085	3425.776784	1.556469	-0.078356	3.393406
200.681195	3436.798243	1.561474	-0.078424	3.398163
200.963832	3447.797627	1.566479	-0.078480	3.402896
201.302675	3458.836560	1.571484	-0.078546	3.407647
201.724325	3469.812568	1.576488	-0.078628	3.412373
202.225845	3480.842314	1.581493	-0.078725	3.417125
202.487128	3491.869724	1.586498	-0.078777	3.421841
202.898642	3502.882173	1.591503	-0.078857	3.426562
203.147875	3513.899654	1.596507	-0.078906	3.431259
203.590617	3524.928634	1.601512	-0.078992	3.435977
203.898836	3535.927408	1.606517	-0.079053	3.440661
204.406025	3546.936369	1.611521	-0.079151	3.445365
204.625756	3557.970111	1.616526	-0.079195	3.450040
205.078715	3568.978802	1.621531	-0.079282	3.454725
205.419428	3579.980102	1.626536	-0.079349	3.459387
205.953336	3591.013653	1.631540	-0.079452	3.464079
206.281010	3602.045271	1.636545	-0.079516	3.468740
206.687561	3613.036151	1.641550	-0.079595	3.473386
206.735761	3624.070418	1.646555	-0.079607	3.478004
207.109849	3635.075456	1.651559	-0.079680	3.482640
207.520011	3646.088684	1.656564	-0.079759	3.487277
207.867466	3657.102498	1.661569	-0.079827	3.491902
208.292348	3668.111699	1.666573	-0.079910	3.496527
208.723548	3679.139427	1.671578	-0.079993	3.501154
208.982699	3690.167024	1.676583	-0.080045	3.505755
209.492994	3701.166964	1.681588	-0.080143	3.510367
209.763640	3712.171159	1.686592	-0.080197	3.514948
210.251182	3723.214534	1.691597	-0.080291	3.519564
210.451325	3734.236858	1.696602	-0.080331	3.524132
210.819477	3745.268543	1.701606	-0.080403	3.528717
210.942302	3756.253452	1.706611	-0.080429	3.533249
211.603798	3767.252798	1.711616	-0.080556	3.537842
211.831027	3778.278001	1.716621	-0.080601	3.542390
212.411796	3789.301135	1.721625	-0.080713	3.546971
212.424472	3800.324331	1.726630	-0.080718	3.551484
212.832594	3811.326635	1.731635	-0.080797	3.556025
213.323980	3822.333327	1.736640	-0.080892	3.560572
213.748178	3833.367915	1.741644	-0.080974	3.565117
213.990232	3844.368200	1.746649	-0.081023	3.569622
214.381345	3855.395825	1.751654	-0.081099	3.574148
214.836890	3866.395222	1.756658	-0.081187	3.578665
215.272668	3877.441153	1.761663	-0.081271	3.583192
215.523406	3888.460458	1.766668	-0.081321	3.587682
215.914302	3899.435695	1.771673	-0.081397	3.592165
216.169253	3910.493563	1.776677	-0.081448	3.596660
216.498518	3921.482310	1.781682	-0.081512	3.601130
217.033439	3932.496405	1.786687	-0.081615	3.605626
217.282694	3943.536699	1.791692	-0.081665	3.610097
217.485718	3954.523871	1.796696	-0.081706	3.614536
217.987003	3965.554884	1.801701	-0.081803	3.619018
218.255798	3976.582684	1.806706	-0.081856	3.623469
218.760321	3987.582446	1.811710	-0.081953	3.627929
219.014138	3998.593471	1.816715	-0.082003	3.632360
219.405639	4009.622625	1.821720	-0.082080	3.636808
219.730344	4020.618987	1.826725	-0.082143	3.641230
220.239600	4031.657396	1.831729	-0.082242	3.645683
220.470115	4042.654904	1.836734	-0.082288	3.650085
220.858994	4053.681001	1.841739	-0.082363	3.654510
221.296544	4064.684481	1.846744	-0.082448	3.658925
221.646260	4075.719075	1.851748	-0.082516	3.663338
221.856293	4086.733557	1.856753	-0.082559	3.667723
222.061776	4097.768121	1.861758	-0.082600	3.672110
222.455304	4108.797137	1.866762	-0.082676	3.676510
222.753012	4119.821901	1.871767	-0.082735	3.680892
222.964970	4130.855409	1.876772	-0.082778	3.685264
223.348753	4141.842539	1.881777	-0.082852	3.689630
223.605189	4152.878419	1.886781	-0.082903	3.693996
223.934464	4163.878505	1.891786	-0.082968	3.698351
224.238634	4174.912673	1.896791	-0.083027	3.702712
224.675005	4185.922767	1.901795	-0.083112	3.707071
224.899928	4196.921779	1.906800	-0.083157	3.711399
225.321267	4207.936718	1.911805	-0.083239	3.715749
225.634148	4218.948871	1.916810	-0.083300	3.720081
226.196323	4229.976471	1.921814	-0.083408	3.724439
226.474529	4240.984619	1.926819	-0.083463	3.728755
226.838088	4252.009545	1.931824	-0.083534	3.733082
226.994520	4263.059702	1.936829	-0.083566	3.737393
227.234101	4274.023416	1.941833	-0.083614	3.741674
227.631840	4285.033536	1.946838	-0.083691	3.745983
228.247841	4296.051710	1.951843	-0.083810	3.750312
228.389623	4307.091978	1.956847	-0.083839	3.754598
228.974056	4318.077382	1.961852	-0.083951	3.758901
229.062273	4329.125387	1.966857	-0.083971	3.763174
