Wed Nov 23 18:47:16 2022

Number of Points = 2200
Depth (nm)	Load (µN)	Time (s)	Depth (V)	Load (V)
-0.766625	1.587767	0.000000	-0.012194	1.091121
0.000000	8.205253	0.005005	-0.012340	1.100354
0.661063	17.640633	0.010009	-0.012466	1.113176
1.268052	28.356847	0.015014	-0.012583	1.127492
1.946285	39.399963	0.020019	-0.012713	1.142083
2.434360	50.521600	0.025024	-0.012807	1.156499
3.028087	61.619717	0.030028	-0.012921	1.170757
3.489940	72.754072	0.035033	-0.013011	1.184827
4.058564	83.844902	0.040038	-0.013120	1.198727
4.332089	95.011393	0.045043	-0.013174	1.212428
4.640838	106.121664	0.050047	-0.013235	1.225924
4.993446	117.190607	0.055052	-0.013304	1.239243
5.634437	128.243773	0.060057	-0.013427	1.252524
5.880664	139.396886	0.065061	-0.013476	1.265615
6.564869	150.331620	0.070066	-0.013607	1.278504
11.202493	160.551908	0.075071	-0.014480	1.292089
17.658846	171.552582	0.080076	-0.015694	1.307149
18.921380	183.393510	0.085080	-0.015934	1.320867
20.422882	194.554105	0.090085	-0.016218	1.333792
21.766999	205.673475	0.095090	-0.016473	1.346485
23.037235	216.785121	0.100094	-0.016714	1.359022
23.879321	227.937263	0.105099	-0.016875	1.371320
25.029706	238.982784	0.110104	-0.017094	1.383513
26.144677	250.042772	0.115109	-0.017305	1.395602
27.328403	261.108237	0.120113	-0.017530	1.407617
28.262899	272.228890	0.125118	-0.017708	1.419494
29.189018	283.299496	0.130123	-0.017885	1.431217
30.068750	294.360825	0.135128	-0.018053	1.442819
31.070855	305.424688	0.140132	-0.018244	1.454374
31.869053	316.521159	0.145137	-0.018396	1.465796
32.746539	327.566230	0.150142	-0.018563	1.477108
33.369504	338.646249	0.155146	-0.018683	1.488277
34.539074	349.658102	0.160151	-0.018905	1.499487
35.304126	360.759126	0.165156	-0.019052	1.510560
36.033269	371.845141	0.170161	-0.019191	1.521524
36.991943	382.851809	0.175165	-0.019374	1.532413
37.715488	393.954342	0.180170	-0.019512	1.543235
38.370791	404.997081	0.185175	-0.019638	1.553902
39.320847	416.023270	0.190180	-0.019819	1.564580
40.138056	427.099461	0.195184	-0.019975	1.575186
41.155473	438.119235	0.200189	-0.020169	1.585736
41.766058	449.233367	0.205194	-0.020286	1.596168
42.582285	460.250716	0.210198	-0.020442	1.606511
43.418427	471.331388	0.215203	-0.020602	1.616851
43.947992	482.395789	0.220208	-0.020704	1.627012
44.777803	493.398533	0.225213	-0.020862	1.637150
45.639802	504.442241	0.230217	-0.021027	1.647272
46.681420	515.464352	0.235222	-0.021225	1.657369
47.427018	526.561144	0.240227	-0.021367	1.667377
48.000040	537.613649	0.245232	-0.021478	1.677234
49.109858	548.573746	0.250236	-0.021689	1.687117
49.888486	559.700543	0.255241	-0.021837	1.696985
50.752511	570.711614	0.260246	-0.022002	1.706722
51.494713	581.761465	0.265250	-0.022144	1.716400
52.445381	592.807247	0.270255	-0.022325	1.726082
53.026756	603.882864	0.275260	-0.022437	1.735625
54.109130	614.856468	0.280265	-0.022643	1.745178
54.737589	625.959409	0.285269	-0.022764	1.754653
55.527296	636.983956	0.290274	-0.022915	1.764058
56.361015	648.039542	0.295279	-0.023074	1.773452
57.038045	659.067443	0.300283	-0.023204	1.782728
57.810102	670.090766	0.305288	-0.023351	1.791980
58.698644	681.159791	0.310293	-0.023521	1.801253
59.420961	692.158521	0.315298	-0.023659	1.810375
60.337686	703.235860	0.320302	-0.023834	1.819569
60.887956	714.281335	0.325307	-0.023940	1.828588
61.904574	725.280951	0.330312	-0.024133	1.837656
62.607478	736.324463	0.335317	-0.024268	1.846627
63.529434	747.377756	0.340321	-0.024443	1.855622
64.323842	758.415436	0.345326	-0.024595	1.864526
65.018285	769.447689	0.350331	-0.024728	1.873356
65.852256	780.499276	0.355335	-0.024888	1.882197
66.572336	791.528222	0.360340	-0.025025	1.890948
67.404842	802.547119	0.365345	-0.025184	1.899681
68.228861	813.594691	0.370350	-0.025342	1.908393
68.908038	824.650829	0.375354	-0.025472	1.917034
69.656731	835.677990	0.380359	-0.025615	1.925631
70.002752	846.764020	0.385364	-0.025683	1.934129
70.678483	857.742754	0.390369	-0.025812	1.942595
71.343009	868.760372	0.395373	-0.025940	1.951051
72.395328	879.774901	0.400378	-0.026140	1.959567
72.794318	890.890604	0.405383	-0.026217	1.967953
73.513947	901.877753	0.410387	-0.026355	1.976290
74.237151	912.894017	0.415392	-0.026494	1.984615
75.178369	923.909521	0.420397	-0.026673	1.992959
75.956256	934.967254	0.425402	-0.026822	2.001257
76.490825	946.031646	0.430406	-0.026925	2.009465
77.225956	957.032351	0.435411	-0.027065	2.017643
77.804497	968.098384	0.440416	-0.027177	2.025796
78.307015	979.120833	0.445421	-0.027274	2.033866
79.022040	990.110223	0.450425	-0.027411	2.041932
79.691330	1001.191441	0.455430	-0.027539	2.050021
80.333023	1012.215012	0.460435	-0.027662	2.058029
80.787005	1023.236773	0.465439	-0.027750	2.065960
81.554423	1034.268384	0.470444	-0.027897	2.073943
82.021426	1045.322832	0.475449	-0.027987	2.081839
82.970576	1056.296737	0.480454	-0.028168	2.089763
83.547734	1067.376886	0.485458	-0.028279	2.097643
84.495664	1078.339639	0.490463	-0.028460	2.105500
85.169070	1089.424782	0.495468	-0.028589	2.113347
85.796453	1100.437006	0.500472	-0.028709	2.121103
86.595731	1111.468684	0.505477	-0.028862	2.128884
87.294527	1122.491736	0.510482	-0.028996	2.136608
87.889678	1133.540320	0.515487	-0.029110	2.144297
88.655920	1144.557237	0.520491	-0.029257	2.151976
89.116666	1155.614156	0.525496	-0.029346	2.159584
89.837729	1166.608307	0.530501	-0.029484	2.167183
90.487122	1177.657288	0.535506	-0.029608	2.174775
91.153140	1188.667316	0.540510	-0.029736	2.182319
91.805685	1199.702017	0.545515	-0.029861	2.189849
92.292393	1210.747348	0.550520	-0.029955	2.197324
92.867407	1221.776948	0.555524	-0.030066	2.204782
93.534695	1232.780575	0.560529	-0.030194	2.212218
94.274435	1243.795669	0.565534	-0.030335	2.219653
94.878310	1254.842336	0.570539	-0.030451	2.227053
95.668416	1265.859763	0.575543	-0.030602	2.234450
96.181698	1276.891612	0.580548	-0.030701	2.241772
96.919743	1287.919912	0.585553	-0.030843	2.249116
97.532873	1298.966889	0.590558	-0.030960	2.256420
98.018115	1309.989835	0.595562	-0.031054	2.263658
98.570908	1320.995041	0.600567	-0.031161	2.270876
99.189767	1332.025076	0.605572	-0.031280	2.278101
99.580471	1343.077030	0.610576	-0.031356	2.285268
100.201433	1354.069229	0.615581	-0.031475	2.292423
101.061058	1365.065670	0.620586	-0.031639	2.299609
101.483489	1376.139255	0.625591	-0.031721	2.306729
102.234676	1387.157714	0.630595	-0.031865	2.313862
102.510426	1398.205075	0.635600	-0.031919	2.320890
103.300732	1409.179212	0.640605	-0.032070	2.327959
103.882287	1420.246741	0.645610	-0.032182	2.335021
104.411312	1431.256863	0.650614	-0.032284	2.342015
105.055118	1442.275287	0.655619	-0.032407	2.349017
105.499311	1453.317430	0.660624	-0.032493	2.355971
106.082855	1464.325920	0.665628	-0.032606	2.362913
106.727447	1475.339198	0.670633	-0.032729	2.369849
107.305054	1486.384005	0.675638	-0.032840	2.376771
107.942627	1497.397616	0.680643	-0.032963	2.383665
108.431499	1508.427234	0.685647	-0.033057	2.390519
109.012028	1519.455270	0.690652	-0.033169	2.397371
109.350302	1530.482200	0.695657	-0.033235	2.404154
109.908005	1541.509649	0.700661	-0.033343	2.410961
110.496497	1552.521845	0.705666	-0.033456	2.417746
111.101701	1563.536320	0.710671	-0.033572	2.424517
111.609623	1574.561940	0.715676	-0.033670	2.431256
112.171989	1585.591730	0.720680	-0.033778	2.437990
112.813542	1596.603472	0.725685	-0.033901	2.444709
113.471370	1607.614456	0.730690	-0.034028	2.451413
114.192833	1618.649701	0.735695	-0.034166	2.458125
114.704454	1629.688830	0.740699	-0.034264	2.464780
115.290166	1640.689015	0.745704	-0.034377	2.471408
115.951301	1651.725735	0.750709	-0.034504	2.478054
116.465014	1662.764871	0.755713	-0.034603	2.484656
116.936443	1673.794658	0.760718	-0.034694	2.491226
117.249643	1684.811215	0.765723	-0.034756	2.497741
117.931151	1695.804879	0.770728	-0.034886	2.504295
118.371679	1706.846662	0.775732	-0.034972	2.510815
118.849956	1717.868186	0.780737	-0.035064	2.517313
119.339498	1728.902833	0.785742	-0.035159	2.523803
119.723457	1739.923714	0.790747	-0.035233	2.530249
120.403471	1750.917161	0.795751	-0.035364	2.536718
120.927257	1761.957469	0.800756	-0.035465	2.543168
121.470253	1772.959631	0.805761	-0.035569	2.549584
122.184903	1783.976459	0.810765	-0.035706	2.556023
122.633469	1795.044237	0.815770	-0.035793	2.562426
122.956140	1806.064763	0.820775	-0.035856	2.568763
123.461113	1817.118460	0.825780	-0.035954	2.575136
123.872140	1828.105778	0.830784	-0.036034	2.581439
124.519597	1839.095536	0.835789	-0.036158	2.587770
124.984365	1850.128981	0.840794	-0.036248	2.594078
125.144201	1861.180628	0.845799	-0.036281	2.600325
125.772761	1872.148100	0.850803	-0.036401	2.606594
126.109579	1883.224644	0.855808	-0.036467	2.612857
126.886059	1894.166274	0.860813	-0.036616	2.619107
127.354906	1905.231007	0.865817	-0.036706	2.625357
128.130653	1916.235871	0.870822	-0.036855	2.631612
128.723154	1927.262647	0.875827	-0.036969	2.637833
129.179442	1938.300561	0.880832	-0.037057	2.644020
129.742104	1949.322914	0.885836	-0.037165	2.650204
130.170813	1960.347622	0.890841	-0.037248	2.656350
130.839966	1971.336068	0.895846	-0.037377	2.662504
131.521961	1982.364429	0.900850	-0.037507	2.668668
131.798854	1993.412641	0.905855	-0.037562	2.674758
132.266811	2004.433376	0.910860	-0.037653	2.680852
132.677982	2015.449534	0.915865	-0.037732	2.686920
133.157143	2026.470805	0.920869	-0.037825	2.692989
133.576994	2037.470535	0.925874	-0.037907	2.699022
134.094059	2048.481529	0.930879	-0.038006	2.705064
134.467758	2059.525907	0.935884	-0.038079	2.711086
135.029501	2070.505939	0.940888	-0.038187	2.717091
135.561033	2081.537366	0.945893	-0.038290	2.723106
135.984616	2092.555471	0.950898	-0.038372	2.729082
136.567901	2103.583203	0.955902	-0.038484	2.735077
136.971773	2114.594913	0.960907	-0.038563	2.741020
137.562078	2125.631319	0.965912	-0.038676	2.746995
137.881360	2136.649100	0.970917	-0.038739	2.752901
138.293527	2147.650103	0.975921	-0.038819	2.758801
138.801514	2158.675365	0.980926	-0.038917	2.764717
139.170242	2169.723361	0.985931	-0.038989	2.770609
139.705854	2180.706492	0.990936	-0.039092	2.776482
140.094747	2191.751543	0.995940	-0.039168	2.782350
140.690659	2202.735679	1.000945	-0.039282	2.788208
141.336532	2213.763347	1.005950	-0.039406	2.794085
141.713932	2224.809909	1.010954	-0.039480	2.799915
142.171761	2235.831603	1.015959	-0.039568	2.805733
142.655551	2246.841645	1.020964	-0.039662	2.811538
143.176214	2257.864810	1.025969	-0.039762	2.817342
143.473134	2268.876846	1.030973	-0.039821	2.823093
143.746449	2279.907516	1.035978	-0.039875	2.828838
144.114803	2290.933388	1.040983	-0.039947	2.834585
144.472422	2301.938650	1.045988	-0.040016	2.840307
145.005379	2312.944075	1.050992	-0.040119	2.846045
145.424676	2323.989104	1.055997	-0.040201	2.851774
145.813191	2334.995478	1.061002	-0.040276	2.857466
146.253468	2346.010178	1.066006	-0.040362	2.863160
146.729216	2357.017418	1.071011	-0.040454	2.868844
147.180958	2368.042140	1.076016	-0.040541	2.874521
147.896359	2379.061253	1.081021	-0.040678	2.880226
148.287186	2390.089047	1.086025	-0.040754	2.885873
148.962195	2401.101943	1.091030	-0.040883	2.891545
149.016868	2412.175328	1.096035	-0.040896	2.897141
149.561512	2423.121038	1.101039	-0.041001	2.902738
149.897009	2434.174144	1.106044	-0.041067	2.908345
150.535135	2445.152280	1.111049	-0.041190	2.913950
150.849615	2456.223493	1.116054	-0.041251	2.919541
151.282630	2467.215791	1.121058	-0.041335	2.925100
151.624278	2478.267328	1.126063	-0.041402	2.930664
152.127289	2489.230955	1.131068	-0.041499	2.936198
152.580039	2500.289601	1.136073	-0.041587	2.941761
153.176611	2511.256127	1.141077	-0.041702	2.947289
153.659530	2522.325731	1.146082	-0.041795	2.952841
154.154616	2533.306149	1.151087	-0.041891	2.958340
154.594359	2544.371202	1.156091	-0.041976	2.963863
155.059773	2555.358853	1.161096	-0.042066	2.969340
155.471345	2566.386763	1.166101	-0.042146	2.974819
155.888095	2577.411610	1.171106	-0.042227	2.980287
156.221418	2588.437639	1.176110	-0.042292	2.985734
156.701874	2599.432839	1.181115	-0.042385	2.991177
157.257701	2610.443875	1.186120	-0.042492	2.996628
157.660102	2621.467143	1.191125	-0.042570	3.002053
158.108015	2632.517717	1.196129	-0.042657	3.007489
158.744665	2643.471611	1.201134	-0.042779	3.012894
159.101003	2654.551197	1.206139	-0.042849	3.018310
159.510646	2665.543313	1.211143	-0.042928	3.023682
160.025607	2676.573156	1.216148	-0.043028	3.029077
160.767785	2687.563125	1.221153	-0.043170	3.034477
161.058881	2698.613911	1.226158	-0.043227	3.039831
161.463382	2709.622025	1.231162	-0.043306	3.045171
161.808244	2720.670945	1.236167	-0.043373	3.050513
162.185376	2731.634598	1.241172	-0.043446	3.055809
162.731867	2742.687765	1.246177	-0.043552	3.061162
163.067104	2753.682009	1.251181	-0.043617	3.066448
163.400981	2764.721615	1.256186	-0.043683	3.071747
163.685381	2775.743994	1.261191	-0.043739	3.077021
164.071022	2786.741757	1.266195	-0.043814	3.082288
164.494820	2797.764626	1.271200	-0.043896	3.087564
165.000512	2808.765395	1.276205	-0.043994	3.092831
165.595623	2819.794828	1.281210	-0.044108	3.098116
165.688300	2830.832075	1.286214	-0.044128	3.103325
166.217924	2841.841569	1.291219	-0.044230	3.108572
166.454108	2852.858118	1.296224	-0.044277	3.113774
166.927710	2863.865497	1.301228	-0.044369	3.118995
167.298009	2874.885452	1.306233	-0.044441	3.124199
167.745372	2885.918944	1.311238	-0.044528	3.129411
167.896412	2896.937586	1.316243	-0.044559	3.134567
168.419113	2907.933404	1.321247	-0.044660	3.139755
168.806777	2918.953878	1.326252	-0.044735	3.144927
169.476543	2929.971007	1.331257	-0.044864	3.150127
169.613737	2941.020322	1.336262	-0.044892	3.155261
170.031604	2952.006495	1.341266	-0.044973	3.160395
170.358442	2963.021281	1.346271	-0.045037	3.165522
170.893947	2974.046353	1.351276	-0.045141	3.170674
171.211828	2985.052747	1.356280	-0.045203	3.175779
171.864107	2996.062243	1.361285	-0.045328	3.180922
172.265052	3007.105350	1.366290	-0.045406	3.186038
172.696621	3018.109955	1.371295	-0.045490	3.191133
172.653444	3029.161578	1.376299	-0.045484	3.196177
173.259197	3040.124770	1.381304	-0.045601	3.201260
173.779816	3051.181412	1.386309	-0.045701	3.206365
174.131776	3062.189577	1.391314	-0.045770	3.211418
174.539031	3073.199471	1.396318	-0.045849	3.216471
174.771462	3084.202437	1.401323	-0.045895	3.221490
175.043940	3095.256811	1.406328	-0.045949	3.226530
175.562817	3106.234964	1.411332	-0.046049	3.231559
176.035991	3117.271599	1.416337	-0.046141	3.236600
176.556448	3128.254085	1.421342	-0.046241	3.241616
176.705066	3139.334505	1.426347	-0.046272	3.246620
177.231669	3150.309122	1.431351	-0.046373	3.251617
177.629020	3161.336808	1.436356	-0.046451	3.256613
178.129049	3172.314756	1.441361	-0.046547	3.261593
178.732552	3183.367749	1.446366	-0.046663	3.266611
178.921538	3194.393720	1.451370	-0.046701	3.271557
179.129644	3205.430410	1.456375	-0.046743	3.276503
179.419056	3216.417973	1.461380	-0.046800	3.281429
180.020028	3227.439042	1.466384	-0.046916	3.286403
180.518044	3238.444747	1.471389	-0.047012	3.291349
180.895742	3249.492551	1.476394	-0.047086	3.296290
181.256553	3260.472408	1.481399	-0.047156	3.301193
181.581174	3271.512463	1.486403	-0.047220	3.306109
181.802892	3282.537526	1.491408	-0.047264	3.310999
182.348248	3293.524347	1.496413	-0.047369	3.315906
182.865599	3304.535907	1.501417	-0.047469	3.320812
183.243497	3315.589449	1.506422	-0.047542	3.325712
183.508922	3326.590230	1.511427	-0.047595	3.330567
183.886568	3337.617782	1.516432	-0.047669	3.335442
184.322470	3348.608972	1.521436	-0.047753	3.340300
184.675442	3359.638506	1.526441	-0.047822	3.345157
185.383812	3370.617454	1.531446	-0.047958	3.350029
185.744571	3381.695660	1.536451	-0.048028	3.354894
185.958774	3392.702026	1.541455	-0.048071	3.359704
186.239118	3403.725268	1.546460	-0.048126	3.364521
186.505856	3414.736672	1.551465	-0.048179	3.369325
186.994079	3425.716523	1.556469	-0.048273	3.374135
187.580327	3436.724889	1.561474	-0.048386	3.378962
187.983561	3447.767362	1.566479	-0.048465	3.383775
188.371410	3458.785282	1.571484	-0.048540	3.388569
188.771755	3469.791009	1.576488	-0.048618	3.393352
189.184989	3480.820700	1.581493	-0.048698	3.398139
189.668717	3491.818343	1.586498	-0.048792	3.402915
190.112908	3502.852367	1.591503	-0.048878	3.407695
190.292431	3513.878632	1.596507	-0.048914	3.412433
190.528366	3524.886474	1.601512	-0.048961	3.417164
190.779843	3535.897437	1.606517	-0.049011	3.421891
191.260439	3546.904480	1.611521	-0.049104	3.426636
191.616930	3557.946856	1.616526	-0.049174	3.431376
191.813255	3568.947578	1.621531	-0.049213	3.436072
192.139232	3579.964600	1.626536	-0.049277	3.440784
192.450219	3590.993792	1.631540	-0.049338	3.445493
192.941627	3601.984279	1.636545	-0.049433	3.450200
193.482492	3613.005483	1.641550	-0.049537	3.454920
193.797516	3624.048769	1.646555	-0.049599	3.459615
194.220445	3635.040677	1.651559	-0.049681	3.464296
194.488938	3646.080529	1.656564	-0.049734	3.468972
194.716664	3657.083498	1.661569	-0.049780	3.473621
195.345132	3668.091570	1.666573	-0.049900	3.478313
195.558723	3679.108438	1.671578	-0.049943	3.482954
196.091771	3690.123919	1.676583	-0.050046	3.487625
196.332411	3701.131994	1.681588	-0.050094	3.492253
196.620854	3712.165081	1.686592	-0.050151	3.496891
197.066841	3723.157474	1.691597	-0.050237	3.501523
197.446299	3734.210696	1.696602	-0.050311	3.506167
197.701200	3745.208292	1.701606	-0.050362	3.510768
197.803759	3756.262630	1.706611	-0.050384	3.515368
198.224273	3767.212987	1.711616	-0.050465	3.519956
198.466557	3778.275307	1.716621	-0.050513	3.524564
198.916364	3789.269772	1.721625	-0.050601	3.529161
199.365010	3800.295945	1.726630	-0.050687	3.533764
199.679681	3811.311713	1.731635	-0.050749	3.538343
199.883597	3822.331698	1.736640	-0.050790	3.542905
200.216662	3833.316871	1.741644	-0.050855	3.547460
200.772288	3844.342530	1.746649	-0.050962	3.552052
201.373827	3855.347027	1.751654	-0.051078	3.556633
201.734446	3866.393582	1.756658	-0.051148	3.561199
202.047522	3877.396402	1.761663	-0.051210	3.565737
202.275490	3888.432499	1.766668	-0.051255	3.570272
202.617174	3899.407260	1.771673	-0.051322	3.574790
203.130839	3910.453695	1.776677	-0.051421	3.579349
203.389281	3921.466206	1.781682	-0.051473	3.583861
203.722962	3932.477374	1.786687	-0.051538	3.588375
203.948748	3943.512227	1.791692	-0.051583	3.592881
204.229912	3954.524835	1.796696	-0.051638	3.597378
204.671586	3965.496468	1.801701	-0.051724	3.601870
205.056057	3976.552983	1.806706	-0.051799	3.606385
205.562769	3987.529425	1.811710	-0.051897	3.610875
205.885064	3998.598275	1.816715	-0.051960	3.615376
206.133840	4009.568146	1.821720	-0.052009	3.619824
206.472875	4020.619433	1.826725	-0.052076	3.624310
206.736451	4031.623069	1.831729	-0.052128	3.628762
207.163994	4042.644643	1.836734	-0.052211	3.633233
207.513715	4053.655517	1.841739	-0.052279	3.637686
207.714333	4064.672669	1.846744	-0.052320	3.642121
208.022939	4075.674245	1.851748	-0.052380	3.646555
208.264087	4086.711121	1.856753	-0.052428	3.650991
208.629521	4097.733712	1.861758	-0.052499	3.655428
208.938828	4108.775336	1.866762	-0.052560	3.659862
209.139058	4119.790932	1.871767	-0.052601	3.664269
209.488572	4130.820978	1.876772	-0.052669	3.668692
209.792597	4141.826983	1.881777	-0.052729	3.673095
210.207068	4152.864093	1.886781	-0.052809	3.677516
210.739990	4163.817742	1.891786	-0.052912	3.681911
211.015883	4174.903997	1.896791	-0.052966	3.686327
211.322840	4185.855034	1.901795	-0.053027	3.690687
211.636230	4196.914943	1.906800	-0.053088	3.695086
211.827142	4207.899693	1.911805	-0.053127	3.699437
212.455240	4218.931690	1.916810	-0.053247	3.703846
212.739002	4229.945886	1.921814	-0.053303	3.708208
212.991353	4241.003690	1.926819	-0.053353	3.712578
213.208118	4251.960571	1.931824	-0.053397	3.716900
213.435220	4263.022557	1.936829	-0.053442	3.721260
213.807174	4273.990144	1.941833	-0.053515	3.725591
214.265838	4285.029958	1.946838	-0.053603	3.729955
214.583080	4296.027529	1.951843	-0.053666	3.734283
214.964053	4307.055380	1.956847	-0.053740	3.738624
215.144162	4318.071007	1.961852	-0.053776	3.742934
215.692682	4329.102901	1.966857	-0.053882	3.747283
