Wed Nov 23 17:12:02 2022

Number of Points = 2200
Depth (nm)	Load (µN)	Time (s)	Depth (V)	Load (V)
0.000000	2.874388	0.000000	0.069592	0.847225
0.780433	7.529085	0.005005	0.069444	0.855835
1.437336	15.920139	0.010009	0.069319	0.870666
2.816448	26.022843	0.015014	0.069057	0.888558
4.088442	36.960228	0.020019	0.068816	0.907394
5.263780	48.112645	0.025024	0.068593	0.926134
6.202561	59.368808	0.030028	0.068414	0.944525
7.046259	70.614507	0.035033	0.068253	0.962493
7.571981	81.921734	0.040038	0.068151	0.980047
8.297952	93.056975	0.045043	0.068012	0.997145
9.137595	104.223696	0.050047	0.067852	1.014062
9.738223	115.425548	0.055052	0.067736	1.030624
10.313973	126.627002	0.060057	0.067626	1.046910
10.928971	137.756123	0.065061	0.067507	1.062866
11.682746	148.882255	0.070066	0.067363	1.078651
12.258578	160.060469	0.075071	0.067252	1.094190
12.648168	171.257106	0.080076	0.067177	1.109443
13.008501	182.382655	0.085080	0.067106	1.124382
13.646163	193.475716	0.090085	0.066984	1.139214
14.247123	204.564519	0.095090	0.066868	1.153833
14.890661	215.697321	0.100094	0.066745	1.168344
17.567818	226.074600	0.105099	0.066240	1.182665
25.236593	236.602695	0.110104	0.064798	1.199264
26.933063	248.550072	0.115109	0.064477	1.214692
28.452728	259.884929	0.120113	0.064189	1.229110
29.887031	271.052460	0.125118	0.063917	1.243122
31.300983	282.177109	0.130123	0.063649	1.256918
32.504227	293.282027	0.135128	0.063421	1.270450
33.684302	304.409941	0.140132	0.063196	1.283856
34.546328	315.596232	0.145137	0.063032	1.297057
35.345438	326.725535	0.150142	0.062879	1.310034
36.401209	337.724837	0.155146	0.062678	1.322842
37.542698	348.759497	0.160151	0.062461	1.335600
38.510293	359.871449	0.165156	0.062277	1.348252
39.360468	371.015586	0.170161	0.062115	1.360775
40.055747	382.103625	0.175165	0.061982	1.373062
40.656400	393.208006	0.180170	0.061866	1.385220
41.837669	404.160783	0.185175	0.061642	1.397334
42.963556	415.237859	0.190180	0.061428	1.409453
43.855865	426.347935	0.195184	0.061258	1.421415
44.871478	437.399980	0.200189	0.061064	1.433262
45.592653	448.525944	0.205194	0.060926	1.444978
46.686513	459.522232	0.210198	0.060718	1.456604
47.686259	470.600893	0.215203	0.060528	1.468187
48.932046	481.637943	0.220208	0.060291	1.479725
49.645635	492.759003	0.225213	0.060155	1.491066
50.665056	503.801899	0.230217	0.059961	1.502353
51.364635	514.901983	0.235222	0.059827	1.513499
52.289764	525.924996	0.240227	0.059650	1.524566
53.233655	536.973550	0.245232	0.059471	1.535585
54.450020	548.004834	0.250236	0.059240	1.546601
55.433598	559.082160	0.255241	0.059052	1.557503
56.258778	570.155829	0.260246	0.058895	1.568272
56.885356	581.255987	0.265250	0.058774	1.578925
57.618501	592.294349	0.270255	0.058634	1.589485
58.563045	603.301746	0.275260	0.058454	1.600015
59.737344	614.335057	0.280265	0.058231	1.610575
60.502829	625.452551	0.285269	0.058085	1.621010
61.432108	636.482812	0.290274	0.057908	1.631351
62.253280	647.500562	0.295279	0.057751	1.641581
63.343012	658.552151	0.300283	0.057544	1.651863
64.058825	669.643752	0.305288	0.057406	1.661998
65.105345	680.639051	0.310293	0.057207	1.672090
66.087454	691.706585	0.315298	0.057020	1.682164
66.643203	702.816136	0.320302	0.056913	1.692082
67.459155	713.810720	0.325307	0.056757	1.701923
68.416467	724.854755	0.330312	0.056575	1.711792
69.046093	735.910915	0.335317	0.056454	1.721515
70.002044	746.941932	0.340321	0.056272	1.731261
70.915611	757.978825	0.345326	0.056098	1.740943
71.510021	769.086959	0.350331	0.055984	1.750537
72.150169	780.089262	0.355335	0.055861	1.760002
73.160398	791.103508	0.360340	0.055669	1.769536
74.057594	802.155556	0.365345	0.055497	1.779016
74.848372	813.215354	0.370350	0.055346	1.788422
75.637232	824.231755	0.375354	0.055196	1.797741
76.354128	835.289877	0.380359	0.055058	1.807025
76.928334	846.400593	0.385364	0.054948	1.816264
77.555580	857.369509	0.390369	0.054827	1.825356
78.612039	868.359096	0.395373	0.054627	1.834540
79.628489	879.426932	0.400378	0.054433	1.843730
80.272654	890.517822	0.405383	0.054309	1.852788
81.035796	901.519252	0.410387	0.054163	1.861763
81.664633	912.582596	0.415392	0.054043	1.870707
82.576531	923.564751	0.420397	0.053869	1.879622
83.684725	934.593927	0.425402	0.053658	1.888585
84.718946	945.630733	0.430406	0.053461	1.897491
85.074449	956.810678	0.435411	0.053392	1.906283
85.523124	967.776273	0.440416	0.053305	1.914894
86.118413	978.788818	0.445421	0.053191	1.923541
87.066186	989.811472	0.450425	0.053010	1.932250
87.713372	1000.839049	0.455430	0.052886	1.940845
88.658970	1011.874839	0.460435	0.052706	1.949486
89.148809	1022.950636	0.465439	0.052611	1.957999
90.048659	1033.941343	0.470444	0.052440	1.966518
90.792655	1045.011546	0.475449	0.052297	1.975019
91.553668	1056.030126	0.480454	0.052152	1.983449
92.312286	1067.052407	0.485458	0.052007	1.991846
93.045294	1078.095315	0.490463	0.051866	2.000215
93.613544	1089.169004	0.495468	0.051757	2.008530
94.087454	1100.219008	0.500472	0.051665	2.016770
94.920414	1111.169675	0.505477	0.051506	2.024993
95.802760	1122.206240	0.510482	0.051338	2.033258
96.212814	1133.301277	0.515487	0.051258	2.041413
96.843500	1144.302873	0.520491	0.051137	2.049523
97.350302	1155.348564	0.525496	0.051039	2.057603
98.395571	1166.287822	0.530501	0.050841	2.065706
99.088035	1177.421084	0.535506	0.050708	2.073829
99.790671	1188.430406	0.540510	0.050573	2.081835
100.222356	1199.465310	0.545515	0.050490	2.089762
100.837357	1210.513159	0.550520	0.050371	2.097713
101.282467	1221.540029	0.555524	0.050285	2.105577
102.002396	1232.525587	0.560529	0.050147	2.113449
102.708517	1243.554146	0.565534	0.050012	2.121319
103.563657	1254.580587	0.570539	0.049849	2.129192
103.880602	1265.685097	0.575543	0.049787	2.136964
104.430504	1276.654593	0.580548	0.049681	2.144669
105.101968	1287.665572	0.585553	0.049552	2.152402
106.088915	1298.691149	0.590558	0.049364	2.160191
106.828599	1309.738198	0.595562	0.049223	2.167910
107.328306	1320.802466	0.600567	0.049126	2.175557
107.891301	1331.800110	0.605572	0.049018	2.183146
108.203980	1342.886717	0.610576	0.048956	2.190712
108.605579	1353.867536	0.615581	0.048878	2.198201
109.185830	1364.908461	0.620586	0.048767	2.205745
109.967500	1375.876846	0.625591	0.048617	2.213259
110.471452	1386.955158	0.630595	0.048520	2.220759
111.223485	1397.962909	0.635600	0.048376	2.228243
111.957219	1408.988690	0.640605	0.048236	2.235708
112.680125	1419.983992	0.645610	0.048097	2.243126
113.662936	1431.011926	0.650614	0.047910	2.250598
113.965362	1442.145694	0.655619	0.047851	2.257965
114.333770	1453.121040	0.660624	0.047779	2.265219
114.848828	1464.136133	0.665628	0.047680	2.272507
115.363373	1475.185710	0.670633	0.047580	2.279794
115.783362	1486.158923	0.675638	0.047499	2.286988
116.396966	1497.240840	0.680643	0.047381	2.294271
116.851914	1508.220163	0.685647	0.047293	2.301431
117.124963	1519.294598	0.690652	0.047239	2.308590
117.773204	1530.290618	0.695657	0.047114	2.315757
118.181510	1541.311596	0.700661	0.047035	2.322867
119.040475	1552.295633	0.705666	0.046871	2.330026
119.661249	1563.381414	0.710671	0.046752	2.337177
120.338126	1574.368394	0.715676	0.046622	2.344256
120.934815	1585.403858	0.720680	0.046508	2.351327
121.298162	1596.450949	0.725685	0.046437	2.358336
121.851297	1607.473137	0.730690	0.046330	2.365347
122.455809	1618.490360	0.735695	0.046214	2.372345
122.862741	1629.527976	0.740699	0.046135	2.379294
123.453047	1640.515000	0.745704	0.046021	2.386229
124.002212	1651.570230	0.750709	0.045916	2.393177
124.453435	1662.575135	0.755713	0.045828	2.400054
124.645373	1673.668748	0.760718	0.045789	2.406914
125.443342	1684.599160	0.765723	0.045637	2.413776
125.906557	1695.656911	0.770728	0.045547	2.420628
126.273638	1706.692653	0.775732	0.045476	2.427429
126.751693	1717.713960	0.780737	0.045383	2.434224
127.344937	1728.720237	0.785742	0.045269	2.441013
127.861117	1739.752026	0.790747	0.045170	2.447784
128.253791	1750.778570	0.795751	0.045093	2.454508
128.937557	1761.784908	0.800756	0.044962	2.461259
129.556945	1772.798165	0.805761	0.044843	2.467983
130.073106	1783.864593	0.810765	0.044744	2.474700
130.203631	1794.885315	0.815770	0.044716	2.481296
130.774706	1805.886289	0.820775	0.044607	2.487949
131.476866	1816.901465	0.825780	0.044472	2.494617
131.931591	1827.931750	0.830784	0.044384	2.501228
132.444211	1838.961930	0.835789	0.044285	2.507833
132.841569	1849.985266	0.840794	0.044208	2.514394
133.310158	1861.009523	0.845799	0.044117	2.520953
133.702716	1872.045099	0.850803	0.044041	2.527486
134.465892	1883.020749	0.855808	0.043895	2.534037
135.023814	1894.060408	0.860813	0.043787	2.540570
135.382241	1905.093429	0.865817	0.043717	2.547045
135.898410	1916.133463	0.870822	0.043618	2.553536
136.230572	1927.132981	0.875827	0.043553	2.559953
136.989717	1938.129927	0.880832	0.043408	2.566432
137.508797	1949.209465	0.885836	0.043308	2.572898
137.785449	1960.273032	0.890841	0.043253	2.579293
138.105732	1971.231820	0.895846	0.043190	2.585620
138.465488	1982.262456	0.900850	0.043120	2.591980
138.797798	1993.267722	0.905855	0.043055	2.598305
139.286815	2004.276669	0.910860	0.042960	2.604645
139.712087	2015.325001	0.915865	0.042878	2.610980
140.323476	2026.312079	0.920869	0.042760	2.617299
140.677891	2037.351686	0.925874	0.042691	2.623586
141.326940	2048.346262	0.930879	0.042567	2.629885
141.870260	2059.359515	0.935884	0.042462	2.636160
142.646715	2070.378659	0.940888	0.042313	2.642465
143.146931	2081.392628	0.945893	0.042217	2.648703
143.647663	2092.448503	0.950898	0.042120	2.654950
144.082649	2103.444017	0.955902	0.042036	2.661136
144.616455	2114.475987	0.960907	0.041933	2.667346
144.859965	2125.515872	0.965912	0.041885	2.673494
145.467515	2136.496486	0.970917	0.041768	2.679660
145.856700	2147.546922	0.975921	0.041692	2.685811
146.095703	2158.593988	0.980926	0.041644	2.691920
146.632235	2169.569387	0.985931	0.041541	2.698028
147.287364	2180.567130	0.990936	0.041415	2.704154
147.746742	2191.617028	0.995940	0.041326	2.710261
148.048058	2202.665998	1.000945	0.041267	2.716326
148.373598	2213.679464	1.005950	0.041203	2.722363
148.775355	2224.678770	1.010954	0.041125	2.728392
149.304099	2235.685467	1.015959	0.041023	2.734433
149.860091	2246.709766	1.020964	0.040916	2.740474
150.312876	2257.732329	1.025969	0.040829	2.746483
150.747382	2268.776627	1.030973	0.040744	2.752488
151.053964	2279.774940	1.035978	0.040684	2.758434
151.667077	2290.775475	1.040983	0.040566	2.764419
152.106608	2301.833924	1.045988	0.040481	2.770393
152.442069	2312.854868	1.050992	0.040415	2.776317
152.871334	2323.871613	1.055997	0.040332	2.782241
153.302566	2334.855759	1.061002	0.040249	2.788136
153.787712	2345.882896	1.066006	0.040155	2.794049
154.176567	2356.927328	1.071011	0.040079	2.799944
154.866692	2367.921812	1.076016	0.039947	2.805849
155.277575	2378.979090	1.081021	0.039867	2.811728
155.711928	2389.972292	1.086025	0.039783	2.817566
155.883733	2401.025043	1.091030	0.039748	2.823380
156.170766	2412.012969	1.096035	0.039691	2.829166
156.957096	2423.006145	1.101039	0.039541	2.835024
157.170549	2434.088225	1.106044	0.039498	2.840824
157.605362	2445.077726	1.111049	0.039414	2.846600
158.145745	2456.089986	1.116054	0.039310	2.852392
158.148988	2467.140196	1.121058	0.039306	2.858106
158.857856	2478.086093	1.126063	0.039171	2.863867
159.231552	2489.171636	1.131068	0.039098	2.869636
159.909481	2500.149074	1.136073	0.038968	2.875385
160.183191	2511.215274	1.141077	0.038914	2.881104
160.514809	2522.213328	1.146082	0.038849	2.886786
160.807967	2533.268514	1.151087	0.038791	2.892480
161.206481	2544.232576	1.156091	0.038714	2.898133
161.679729	2555.262526	1.161096	0.038622	2.903819
162.114013	2566.278607	1.166101	0.038538	2.909482
162.584209	2577.306281	1.171106	0.038447	2.915144
163.035382	2588.299380	1.176110	0.038360	2.920776
163.538527	2599.358993	1.181115	0.038262	2.926437
163.931163	2610.345377	1.186120	0.038186	2.932034
164.258282	2621.393703	1.191125	0.038122	2.937641
164.627860	2632.408249	1.196129	0.038050	2.943227
164.891656	2643.422103	1.201134	0.037998	2.948786
165.222645	2654.434105	1.206139	0.037933	2.954343
165.496439	2665.466455	1.211143	0.037879	2.959892
166.139475	2676.457239	1.216148	0.037755	2.965465
166.354632	2687.528879	1.221153	0.037712	2.971003
166.656576	2698.505719	1.226158	0.037653	2.976497
166.951460	2709.533076	1.231162	0.037595	2.982004
167.264973	2720.548981	1.236167	0.037533	2.987499
167.606684	2731.581432	1.241172	0.037466	2.992995
167.975280	2742.572524	1.246177	0.037394	2.998465
168.405726	2753.590223	1.251181	0.037311	3.003948
169.082839	2764.614660	1.256186	0.037181	3.009459
169.381491	2775.643307	1.261191	0.037122	3.014907
169.901439	2786.637161	1.266195	0.037022	3.020361
170.271061	2797.678092	1.271200	0.036950	3.025805
170.730500	2808.681573	1.276205	0.036861	3.031235
170.729792	2819.750206	1.281210	0.036858	3.036619
171.009078	2830.728823	1.286214	0.036803	3.041991
171.354585	2841.751163	1.291219	0.036736	3.047384
171.928896	2852.743043	1.296224	0.036625	3.052785
172.212480	2863.793402	1.301228	0.036569	3.058164
172.525418	2874.801621	1.306233	0.036508	3.063516
173.102256	2885.799402	1.311238	0.036397	3.068892
173.392702	2896.850430	1.316243	0.036340	3.074244
173.637363	2907.874729	1.321247	0.036291	3.079566
173.987104	2918.851215	1.326252	0.036223	3.084871
174.706863	2929.887378	1.331257	0.036085	3.090248
174.826150	2940.923399	1.336262	0.036060	3.095531
175.170584	2951.912275	1.341266	0.035992	3.100813
175.717374	2962.915497	1.346271	0.035887	3.106122
176.190129	2973.964666	1.351276	0.035796	3.111433
176.677730	2984.962893	1.356280	0.035701	3.116713
177.011656	2996.015140	1.361285	0.035636	3.121988
177.504115	3007.006556	1.366290	0.035541	3.127248
177.731152	3018.058832	1.371295	0.035496	3.132490
178.108125	3029.035235	1.376299	0.035422	3.137708
178.636676	3040.050198	1.381304	0.035320	3.142957
178.897243	3051.087679	1.386309	0.035269	3.148170
179.334745	3062.107764	1.391314	0.035184	3.153391
179.611886	3073.115454	1.396318	0.035129	3.158576
180.244511	3084.114937	1.401323	0.035008	3.163796
180.587214	3095.164548	1.406328	0.034941	3.168992
180.906687	3106.175650	1.411332	0.034878	3.174158
181.207042	3117.194472	1.416337	0.034819	3.179316
181.459376	3128.206451	1.421342	0.034769	3.184457
182.041205	3139.224026	1.426347	0.034657	3.189636
182.302352	3150.245446	1.431351	0.034605	3.194765
182.678890	3161.265463	1.436356	0.034532	3.199901
182.954912	3172.274499	1.441361	0.034477	3.205010
183.337709	3183.309071	1.446366	0.034403	3.210136
183.509734	3194.294299	1.451370	0.034368	3.215204
183.980442	3205.318052	1.456375	0.034277	3.220321
184.369665	3216.329524	1.461380	0.034201	3.225413
184.765847	3227.367041	1.466384	0.034124	3.230510
185.188312	3238.365496	1.471389	0.034042	3.235585
185.634228	3249.382419	1.476394	0.033955	3.240662
186.081612	3260.400172	1.481399	0.033869	3.245733
186.722024	3271.419154	1.486403	0.033746	3.250821
187.148020	3282.431020	1.491408	0.033663	3.255870
187.572057	3293.449937	1.496413	0.033581	3.260914
187.631270	3304.491041	1.501417	0.033567	3.265913
188.145972	3315.490949	1.506422	0.033468	3.270944
188.523339	3326.522775	1.511427	0.033394	3.275964
189.173622	3337.508236	1.516432	0.033269	3.280991
189.521993	3348.557349	1.521436	0.033201	3.286000
189.927769	3359.564757	1.526441	0.033123	3.290989
190.283190	3370.580655	1.531446	0.033053	3.295968
190.764242	3381.587470	1.536451	0.032960	3.300952
191.068854	3392.620462	1.541455	0.032900	3.305917
191.467316	3403.624677	1.546460	0.032823	3.310874
191.785793	3414.641888	1.551465	0.032760	3.315819
192.234297	3425.657854	1.556469	0.032673	3.320772
192.353659	3436.715973	1.561474	0.032648	3.325696
192.773292	3447.693365	1.566479	0.032567	3.330613
192.930933	3458.703813	1.571484	0.032534	3.335506
193.426796	3469.716062	1.576488	0.032439	3.340434
193.771040	3480.760367	1.581493	0.032371	3.345349
194.089305	3491.770454	1.586498	0.032309	3.350240
194.378965	3502.767383	1.591503	0.032252	3.355114
194.744298	3513.817555	1.596507	0.032181	3.360013
194.851055	3524.833180	1.601512	0.032158	3.364858
195.316856	3535.822869	1.606517	0.032068	3.369729
195.631599	3546.852131	1.611521	0.032006	3.374591
196.137281	3557.851095	1.616526	0.031908	3.379457
196.418650	3568.885691	1.621531	0.031853	3.384304
196.945154	3579.885552	1.626536	0.031751	3.389158
197.084700	3590.916016	1.631540	0.031722	3.393972
197.904663	3601.894829	1.636545	0.031566	3.398838
198.149251	3612.975433	1.641550	0.031517	3.403673
198.634773	3623.943382	1.646555	0.031423	3.408480
198.844873	3634.966582	1.651559	0.031381	3.413271
199.419213	3645.975555	1.656564	0.031271	3.418094
199.698214	3657.021299	1.661569	0.031216	3.422889
199.941863	3668.044747	1.666573	0.031167	3.427665
200.173482	3679.042818	1.671578	0.031121	3.432421
200.530707	3690.051323	1.676583	0.031051	3.437189
200.815722	3701.070715	1.681588	0.030995	3.441948
201.462032	3712.082855	1.686592	0.030871	3.446739
201.744202	3723.110905	1.691597	0.030815	3.451487
202.314221	3734.104806	1.696602	0.030706	3.456248
202.526269	3745.148093	1.701606	0.030663	3.460982
203.016324	3756.139511	1.706611	0.030568	3.465719
203.291654	3767.189471	1.711616	0.030514	3.470449
204.007291	3778.167345	1.716621	0.030377	3.475194
204.415187	3789.203576	1.721625	0.030298	3.479921
204.336106	3800.256244	1.726630	0.030310	3.484592
204.647860	3811.235564	1.731635	0.030249	3.489271
205.107440	3822.241152	1.736640	0.030160	3.493972
205.380148	3833.288755	1.741644	0.030106	3.498662
205.778999	3844.263501	1.746649	0.030028	3.503330
206.154050	3855.327363	1.751654	0.029955	3.508027
206.479206	3866.316645	1.756658	0.029891	3.512680
206.589967	3877.351752	1.761663	0.029868	3.517321
207.089056	3888.323274	1.766668	0.029771	3.521974
207.655508	3899.360128	1.771673	0.029662	3.526656
207.837583	3910.412057	1.776677	0.029626	3.531294
208.026515	3921.410184	1.781682	0.029587	3.535904
208.343419	3932.408343	1.786687	0.029525	3.540523
208.538776	3943.452619	1.791692	0.029486	3.545141
209.224253	3954.413277	1.796696	0.029354	3.549774
209.420829	3965.479800	1.801701	0.029315	3.554389
209.664604	3976.476531	1.806706	0.029266	3.558974
209.718574	3987.521574	1.811710	0.029254	3.563553
210.076613	3998.513196	1.816715	0.029184	3.568137
210.498327	4009.519524	1.821720	0.029102	3.572729
210.954682	4020.535619	1.826725	0.029013	3.577322
211.291268	4031.551472	1.831729	0.028948	3.581896
211.695558	4042.581755	1.836734	0.028869	3.586478
211.981866	4053.596575	1.841739	0.028812	3.591034
212.453040	4064.573040	1.846744	0.028721	3.595589
212.917886	4075.636457	1.851748	0.028631	3.600173
213.295679	4086.631572	1.856753	0.028558	3.604714
213.563588	4097.680961	1.861758	0.028505	3.609259
213.981838	4108.711276	1.866762	0.028424	3.613806
214.439710	4119.739937	1.871767	0.028335	3.618352
214.968365	4130.735637	1.876772	0.028233	3.622886
215.428356	4141.754643	1.881777	0.028144	3.627417
215.629762	4152.785038	1.886781	0.028103	3.631918
215.763554	4163.793342	1.891786	0.028076	3.636397
216.007284	4174.803916	1.896791	0.028027	3.640884
216.380178	4185.827265	1.901795	0.027954	3.645384
216.835136	4196.838212	1.906800	0.027866	3.649882
217.094928	4207.862896	1.911805	0.027815	3.654359
217.370785	4218.877716	1.916810	0.027760	3.658829
217.442560	4229.915872	1.921814	0.027744	3.663281
217.935768	4240.890627	1.926819	0.027649	3.667746
218.280276	4251.922236	1.931824	0.027582	3.672213
218.681226	4262.931714	1.936829	0.027504	3.676671
218.645330	4273.962080	1.941833	0.027508	3.681087
218.993879	4284.964878	1.946838	0.027439	3.685526
219.229503	4295.981937	1.951843	0.027393	3.689954
219.591491	4306.976217	1.956847	0.027322	3.694381
219.991271	4318.005458	1.961852	0.027244	3.698820
220.237937	4329.037326	1.966857	0.027195	3.703239
220.602669	4340.040775	1.971862	0.027124	3.707654
221.158916	4351.039177	1.976866	0.027017	3.712081
221.571625	4362.072054	1.981871	0.026937	3.716501
221.927532	4373.084339	1.986876	0.026867	3.720902
222.427298	4384.123095	1.991881	0.026771	3.725323
222.585668	4395.113125	1.996885	0.026738	3.729685
222.968327	4406.134724	2.001890	0.026664	3.734076
223.328819	4417.119939	2.006895	0.026593	3.738446
