Wed Nov 23 18:47:16 2022

Number of Points = 2200
Depth (nm)	Load (µN)	Time (s)	Depth (V)	Load (V)
-2.797934	1.759291	0.000000	-0.028861	1.134397
0.000000	8.003479	0.005005	-0.029387	1.143737
3.711546	17.142472	0.010009	-0.030086	1.157092
7.529142	27.891779	0.015014	-0.030805	1.172351
10.230012	39.164114	0.020019	-0.031315	1.187551
12.404095	50.438851	0.025024	-0.031725	1.202325
13.657907	61.747339	0.030028	-0.031964	1.216553
15.026250	72.869836	0.035033	-0.032223	1.230445
16.049557	84.040989	0.040038	-0.032418	1.244090
16.878469	95.192778	0.045043	-0.032576	1.257480
17.530403	106.316036	0.050047	-0.032701	1.270623
18.298099	117.402797	0.055052	-0.032848	1.283636
18.955048	128.488872	0.060057	-0.032974	1.296472
19.476921	139.678707	0.065061	-0.033075	1.309243
20.034554	150.690426	0.070066	-0.033182	1.321708
20.638716	161.766395	0.075071	-0.033298	1.334144
20.991329	172.890438	0.080076	-0.033367	1.346419
21.432151	183.956260	0.085080	-0.033453	1.358554
21.932489	195.004601	0.090085	-0.033549	1.370586
22.472066	206.086662	0.095090	-0.033653	1.382563
22.902963	217.157032	0.100094	-0.033737	1.394384
23.480472	228.226946	0.105099	-0.033848	1.406159
30.499166	237.418912	0.110104	-0.035167	1.418301
40.525689	249.058240	0.115109	-0.037051	1.433942
41.360298	261.212110	0.120113	-0.037211	1.446579
42.615892	272.362708	0.125118	-0.037449	1.458253
43.840173	283.404422	0.130123	-0.037682	1.469714
45.094084	294.509956	0.135128	-0.037920	1.481159
45.956751	305.624784	0.140132	-0.038084	1.492387
47.149203	316.633368	0.145137	-0.038311	1.503542
48.233100	327.693174	0.150142	-0.038517	1.514627
49.392690	338.761987	0.155146	-0.038737	1.525665
50.421791	349.837859	0.160151	-0.038933	1.536585
51.508475	360.894157	0.165156	-0.039140	1.547429
52.362992	371.968650	0.170161	-0.039303	1.558136
53.349040	383.015238	0.175165	-0.039491	1.568787
54.151951	394.101367	0.180170	-0.039644	1.579341
55.032638	405.133508	0.185175	-0.039812	1.589802
55.779131	416.202923	0.190180	-0.039955	1.600183
56.464171	427.287917	0.195184	-0.040086	1.610492
57.669032	438.240674	0.200189	-0.040315	1.620782
58.683263	449.335690	0.205194	-0.040508	1.631073
59.575376	460.377789	0.210198	-0.040678	1.641214
60.714056	471.393515	0.215203	-0.040895	1.651346
61.681309	482.459190	0.220208	-0.041079	1.661406
62.582488	493.536346	0.225213	-0.041251	1.671394
63.331410	504.587327	0.230217	-0.041394	1.681254
64.552259	515.569831	0.235222	-0.041626	1.691140
65.354761	526.669815	0.240227	-0.041779	1.700942
66.358955	537.706979	0.245232	-0.041970	1.710695
66.964900	548.780803	0.250236	-0.042087	1.720304
67.775839	559.811647	0.255241	-0.042242	1.729884
68.619574	570.831586	0.260246	-0.042403	1.739411
69.821791	581.828251	0.265250	-0.042631	1.748972
70.546111	592.954403	0.270255	-0.042770	1.758448
71.704616	603.919434	0.275260	-0.042990	1.767866
72.632879	615.010294	0.280265	-0.043167	1.777271
73.320293	626.069606	0.285269	-0.043298	1.786530
74.135461	637.086578	0.290274	-0.043454	1.795744
74.938339	648.138114	0.295279	-0.043607	1.804935
75.766585	659.154329	0.300283	-0.043766	1.814057
76.464644	670.244169	0.305288	-0.043899	1.823156
77.176968	681.259974	0.310293	-0.044036	1.832155
77.989747	692.294783	0.315298	-0.044191	1.841152
78.759997	703.328160	0.320302	-0.044338	1.850092
79.721610	714.363489	0.325307	-0.044521	1.859042
80.517349	725.387646	0.330312	-0.044673	1.867896
81.311474	736.452680	0.335317	-0.044825	1.876738
81.960418	747.487179	0.340321	-0.044950	1.885476
83.071638	758.469118	0.345326	-0.045161	1.894257
83.636251	769.579670	0.350331	-0.045270	1.902950
84.435417	780.587503	0.355335	-0.045422	1.911587
84.887313	791.673109	0.360340	-0.045510	1.920152
85.595478	802.649672	0.365345	-0.045645	1.928663
86.191318	813.736936	0.370350	-0.045760	1.937191
87.331339	824.643423	0.375354	-0.045976	1.945687
88.242392	835.733746	0.380359	-0.046150	1.954224
89.031450	846.797442	0.385364	-0.046301	1.962672
89.643060	857.853474	0.390369	-0.046418	1.971032
90.295516	868.867033	0.395373	-0.046544	1.979336
90.943383	879.890685	0.400378	-0.046668	1.987611
92.030892	890.892688	0.405383	-0.046875	1.995946
92.495647	901.985869	0.410387	-0.046965	2.004157
93.179947	913.001629	0.415392	-0.047096	2.012333
93.753599	924.059013	0.420397	-0.047206	2.020478
94.448301	935.052085	0.425402	-0.047339	2.028573
94.971912	946.107085	0.430406	-0.047440	2.036639
95.812273	957.103716	0.435411	-0.047601	2.044708
96.534409	968.131025	0.440416	-0.047739	2.052738
97.252082	979.211531	0.445421	-0.047876	2.060773
97.781489	990.208489	0.450425	-0.047978	2.068672
98.454466	1001.254157	0.455430	-0.048107	2.076610
99.068664	1012.260199	0.460435	-0.048225	2.084475
100.019999	1023.301769	0.465439	-0.048407	2.092416
100.559353	1034.365171	0.470444	-0.048511	2.100244
101.421815	1045.339745	0.475449	-0.048675	2.108057
101.880559	1056.436870	0.480454	-0.048764	2.115830
102.508219	1067.426514	0.485458	-0.048884	2.123541
103.135164	1078.465274	0.490463	-0.049005	2.131257
104.076630	1089.460067	0.495468	-0.049184	2.138988
104.642217	1100.522209	0.500472	-0.049293	2.146650
105.341049	1111.557914	0.505477	-0.049427	2.154297
105.821321	1122.593992	0.510482	-0.049520	2.161866
106.616625	1133.573611	0.515487	-0.049672	2.169443
107.095771	1144.675116	0.520491	-0.049764	2.177004
107.573028	1155.671089	0.525496	-0.049857	2.184467
108.025185	1166.697099	0.530501	-0.049944	2.191919
108.781908	1177.696751	0.535506	-0.050089	2.199396
109.346364	1188.768940	0.540510	-0.050198	2.206852
109.945798	1199.772795	0.545515	-0.050313	2.214246
110.670612	1210.760708	0.550520	-0.050451	2.221633
111.478925	1221.830942	0.555524	-0.050606	2.229067
111.783570	1232.878926	0.560529	-0.050666	2.236351
112.426896	1243.876630	0.565534	-0.050789	2.243652
113.025638	1254.912215	0.570539	-0.050904	2.250945
113.787323	1265.934696	0.575543	-0.051050	2.258240
114.203527	1276.979137	0.580548	-0.051131	2.265451
114.771707	1287.986834	0.585553	-0.051240	2.272649
115.398380	1298.995736	0.590558	-0.051360	2.279836
116.080710	1310.026525	0.595562	-0.051491	2.287027
116.495470	1321.101258	0.600567	-0.051572	2.294166
116.941023	1332.087873	0.605572	-0.051658	2.301233
117.443255	1343.110166	0.610576	-0.051755	2.308313
117.946326	1354.167096	0.615581	-0.051852	2.315394
118.419613	1365.157460	0.620586	-0.051944	2.322404
118.998290	1376.209436	0.625591	-0.052055	2.329454
119.338651	1387.220740	0.630595	-0.052122	2.336407
120.205578	1398.219743	0.635600	-0.052287	2.343441
120.593701	1409.267401	0.640605	-0.052363	2.350385
121.109907	1420.298955	0.645610	-0.052462	2.357325
121.424164	1431.352073	0.650614	-0.052524	2.364216
122.019488	1442.318553	0.655619	-0.052638	2.371091
122.666519	1453.345809	0.660624	-0.052762	2.377993
123.229670	1464.381920	0.665628	-0.052871	2.384864
123.719406	1475.417800	0.670633	-0.052965	2.391700
124.106691	1486.449860	0.675638	-0.053041	2.398494
124.577163	1497.465873	0.680643	-0.053132	2.405275
125.229587	1508.464047	0.685647	-0.053257	2.412062
125.709244	1519.512790	0.690652	-0.053350	2.418827
126.301395	1530.519979	0.695657	-0.053464	2.425569
126.795594	1541.541804	0.700661	-0.053559	2.432282
127.512148	1552.564403	0.705666	-0.053696	2.439021
128.020901	1563.589587	0.710671	-0.053794	2.445701
128.671729	1574.615309	0.715676	-0.053919	2.452391
129.162820	1585.648922	0.720680	-0.054014	2.459037
129.730025	1596.666657	0.725685	-0.054123	2.465670
130.071766	1607.696734	0.730690	-0.054190	2.472248
130.739330	1618.707219	0.735695	-0.054318	2.478860
131.215693	1629.731199	0.740699	-0.054410	2.485426
131.746495	1640.773750	0.745704	-0.054513	2.491995
131.975751	1651.819401	0.750709	-0.054558	2.498492
132.553069	1662.778334	0.755713	-0.054669	2.504987
133.080025	1673.819701	0.760718	-0.054771	2.511503
133.607559	1684.856885	0.765723	-0.054873	2.518000
134.295872	1695.845117	0.770728	-0.055005	2.524481
134.746871	1706.901305	0.775732	-0.055092	2.530941
135.268713	1717.898031	0.780737	-0.055193	2.537364
135.815302	1728.955696	0.785742	-0.055298	2.543809
136.260462	1739.944319	0.790747	-0.055384	2.550180
137.012527	1750.947390	0.795751	-0.055528	2.556599
137.551222	1762.017613	0.800756	-0.055632	2.563001
137.831615	1773.043263	0.805761	-0.055687	2.569315
138.152416	1784.122349	0.810765	-0.055750	2.575650
138.637225	1795.069534	0.815770	-0.055844	2.581926
139.114143	1806.085911	0.820775	-0.055936	2.588223
139.441041	1817.114465	0.825780	-0.056000	2.594485
139.921816	1828.124223	0.830784	-0.056093	2.600749
140.425971	1839.147286	0.835789	-0.056190	2.607009
140.904841	1850.181819	0.840794	-0.056283	2.613255
141.377877	1861.185229	0.845799	-0.056374	2.619469
141.878242	1872.204162	0.850803	-0.056471	2.625681
142.512636	1883.213377	0.855808	-0.056593	2.631896
142.914536	1894.281641	0.860813	-0.056671	2.638089
143.595271	1905.240211	0.865817	-0.056801	2.644255
144.010581	1916.331732	0.870822	-0.056882	2.650433
144.315241	1927.328869	0.875827	-0.056942	2.656526
144.712100	1938.355794	0.880832	-0.057019	2.662637
145.239608	1949.333454	0.885836	-0.057121	2.668729
145.685622	1960.384467	0.890841	-0.057207	2.674834
146.301593	1971.367360	0.895846	-0.057326	2.680916
146.747669	1982.449833	0.900850	-0.057412	2.687010
147.136537	1993.464750	0.905855	-0.057488	2.693043
147.522701	2004.439805	0.910860	-0.057563	2.699041
148.027817	2015.483432	0.915865	-0.057660	2.705082
148.348723	2026.522104	0.920869	-0.057723	2.711076
148.741707	2037.549562	0.925874	-0.057800	2.717063
149.008455	2048.533584	0.930879	-0.057853	2.722992
149.509056	2059.531031	0.935884	-0.057949	2.728954
149.980747	2070.568683	0.940888	-0.058040	2.734920
150.626407	2081.550678	0.945893	-0.058164	2.740872
151.173399	2092.598265	0.950898	-0.058270	2.746830
151.560538	2103.622623	0.955902	-0.058345	2.752735
152.230099	2114.617753	0.960907	-0.058473	2.758659
152.749138	2125.650004	0.965912	-0.058574	2.764565
153.050470	2136.706741	0.970917	-0.058633	2.770435
153.393213	2147.705987	0.975921	-0.058700	2.776270
153.666177	2158.746355	0.980926	-0.058754	2.782102
154.148756	2169.728291	0.985931	-0.058847	2.787926
154.370030	2180.774898	0.990936	-0.058891	2.793728
154.879498	2191.770848	0.995940	-0.058990	2.799539
155.316267	2202.794793	1.000945	-0.059074	2.805340
155.627969	2213.833876	1.005950	-0.059136	2.811117
156.123034	2224.830211	1.010954	-0.059231	2.816889
156.493145	2235.874456	1.015959	-0.059303	2.822654
156.813292	2246.857165	1.020964	-0.059366	2.828368
157.597309	2257.859515	1.025969	-0.059516	2.834154
158.013278	2268.924612	1.030973	-0.059597	2.839901
158.418564	2279.928714	1.035978	-0.059676	2.845604
158.861274	2290.961577	1.040983	-0.059761	2.851316
159.347626	2301.961420	1.045988	-0.059855	2.857007
159.917477	2312.983265	1.050992	-0.059965	2.862710
160.287499	2323.996316	1.055997	-0.060037	2.868366
160.768980	2335.042931	1.061002	-0.060130	2.874045
161.284598	2346.047192	1.066006	-0.060230	2.879697
161.455764	2357.082088	1.071011	-0.060265	2.885300
162.009297	2368.078645	1.076016	-0.060371	2.890931
162.484709	2379.113730	1.081021	-0.060463	2.896559
162.742549	2390.129674	1.086025	-0.060514	2.902133
163.299429	2401.130699	1.091030	-0.060621	2.907734
163.741537	2412.147364	1.096035	-0.060707	2.913315
164.189980	2423.169976	1.101039	-0.060794	2.918888
164.841430	2434.177486	1.106044	-0.060919	2.924474
165.446457	2445.218403	1.111049	-0.061035	2.930059
165.891761	2456.216959	1.116054	-0.061121	2.935588
166.191010	2467.275408	1.121058	-0.061180	2.941115
166.617150	2478.257165	1.126063	-0.061263	2.946612
167.140038	2489.288207	1.131068	-0.061364	2.952137
167.550957	2500.298946	1.136073	-0.061444	2.957625
167.909092	2511.336402	1.141077	-0.061514	2.963108
168.135241	2522.372845	1.146082	-0.061559	2.968561
168.495066	2533.370381	1.151087	-0.061629	2.974005
169.085756	2544.361683	1.156091	-0.061743	2.979469
169.375324	2555.408843	1.161096	-0.061800	2.984906
170.049506	2566.388328	1.166101	-0.061929	2.990357
170.426486	2577.447754	1.171106	-0.062002	2.995793
171.099878	2588.435469	1.176110	-0.062131	3.001228
171.503651	2599.463507	1.181115	-0.062210	3.006632
172.051155	2610.477806	1.186120	-0.062315	3.012042
172.451423	2621.521671	1.191125	-0.062393	3.017434
172.813072	2632.516282	1.196129	-0.062464	3.022787
172.985008	2643.558919	1.201134	-0.062499	3.028127
173.375722	2654.573479	1.206139	-0.062575	3.033475
173.694990	2665.592737	1.211143	-0.062637	3.038805
174.243643	2676.582919	1.216148	-0.062743	3.044145
174.649137	2687.626474	1.221153	-0.062822	3.049481
175.117972	2698.621854	1.226158	-0.062913	3.054793
175.523011	2709.655846	1.231162	-0.062991	3.060105
176.085554	2720.641010	1.236167	-0.063100	3.065407
176.503715	2731.699822	1.241172	-0.063181	3.070714
176.777334	2742.716840	1.246177	-0.063235	3.075972
177.118315	2753.731087	1.251181	-0.063302	3.081228
177.548839	2764.739358	1.256186	-0.063385	3.086486
178.099309	2775.732755	1.261191	-0.063491	3.091744
178.606048	2786.767669	1.266195	-0.063589	3.097006
178.947525	2797.800118	1.271200	-0.063656	3.102236
179.314067	2808.810184	1.276205	-0.063727	3.107449
179.766432	2819.835904	1.281210	-0.063815	3.112673
180.217767	2830.834134	1.286214	-0.063902	3.117875
180.612039	2841.871325	1.291219	-0.063979	3.123078
181.038979	2852.876839	1.296224	-0.064062	3.128263
181.482794	2863.900151	1.301228	-0.064148	3.133449
181.763978	2874.917811	1.306233	-0.064203	3.138602
182.157634	2885.929058	1.311238	-0.064280	3.143758
182.625783	2896.951210	1.316243	-0.064371	3.148922
183.175350	2907.958703	1.321247	-0.064476	3.154080
183.529221	2918.996497	1.326252	-0.064546	3.159218
183.863976	2930.001199	1.331257	-0.064611	3.164330
184.189496	2941.030137	1.336262	-0.064675	3.169443
184.727870	2952.028248	1.341266	-0.064779	3.174562
185.067506	2963.057421	1.346271	-0.064845	3.179661
185.376626	2974.082776	1.351276	-0.064906	3.184745
185.878608	2985.078348	1.356280	-0.065003	3.189833
186.246807	2996.113632	1.361285	-0.065075	3.194914
186.635782	3007.145752	1.366290	-0.065150	3.199987
186.932264	3018.153790	1.371295	-0.065209	3.205030
187.478558	3029.139663	1.376299	-0.065314	3.210087
187.890843	3040.159344	1.381304	-0.065394	3.215134
188.301938	3051.174315	1.386309	-0.065474	3.220170
188.585536	3062.213933	1.391314	-0.065530	3.225193
189.043181	3073.237601	1.396318	-0.065618	3.230223
189.465410	3084.247468	1.401323	-0.065700	3.235235
189.959803	3095.240910	1.406328	-0.065796	3.240241
190.141994	3106.294094	1.411332	-0.065833	3.245226
190.669785	3117.293990	1.416337	-0.065934	3.250223
190.881262	3128.317434	1.421342	-0.065977	3.255183
191.026954	3139.329870	1.426347	-0.066007	3.260121
191.435414	3150.371614	1.431351	-0.066086	3.265099
191.821680	3161.348574	1.436356	-0.066162	3.270037
192.164762	3172.367480	1.441361	-0.066229	3.274981
192.691544	3183.383412	1.446366	-0.066330	3.279940
193.105586	3194.410581	1.451370	-0.066411	3.284881
193.561861	3205.428650	1.456375	-0.066499	3.289817
193.988785	3216.446616	1.461380	-0.066582	3.294741
194.523354	3227.451655	1.466384	-0.066685	3.299665
194.965294	3238.477242	1.471389	-0.066770	3.304579
195.279761	3249.509637	1.476394	-0.066832	3.309473
195.679731	3260.503200	1.481399	-0.066910	3.314354
196.109705	3271.514855	1.486403	-0.066993	3.319238
196.408185	3282.546055	1.491408	-0.067052	3.324108
196.825408	3293.566663	1.496413	-0.067133	3.328981
196.939679	3304.591922	1.501417	-0.067157	3.333811
197.484386	3315.578019	1.506422	-0.067262	3.338669
197.910250	3326.630577	1.511427	-0.067345	3.343535
198.320160	3337.617932	1.516432	-0.067425	3.348364
198.581217	3348.659007	1.521436	-0.067476	3.353190
199.065310	3359.655881	1.526441	-0.067570	3.358018
199.436159	3370.672631	1.531446	-0.067642	3.362833
199.913111	3381.683799	1.536451	-0.067734	3.367652
200.242575	3392.718419	1.541455	-0.067799	3.372456
200.723451	3403.710153	1.546460	-0.067892	3.377253
200.896489	3414.764661	1.551465	-0.067927	3.382033
201.344575	3425.743078	1.556469	-0.068014	3.386807
201.745063	3436.778322	1.561474	-0.068092	3.391592
202.136877	3447.786770	1.566479	-0.068168	3.396358
202.678467	3458.810323	1.571484	-0.068272	3.401142
202.995116	3469.823912	1.576488	-0.068334	3.405888
203.459743	3480.836298	1.581493	-0.068424	3.410644
203.795842	3491.866384	1.586498	-0.068490	3.415385
204.073067	3502.869699	1.591503	-0.068545	3.420102
204.556600	3513.877754	1.596507	-0.068638	3.424839
204.923684	3524.930717	1.601512	-0.068710	3.429574
205.341695	3535.905671	1.606517	-0.068791	3.434275
205.643827	3546.966364	1.611521	-0.068851	3.438993
205.937068	3557.948913	1.616526	-0.068908	3.443670
206.513140	3568.965110	1.621531	-0.069019	3.448387
206.927439	3579.975424	1.626536	-0.069100	3.453077
207.436498	3591.005525	1.631540	-0.069198	3.457780
207.775972	3602.019585	1.636545	-0.069264	3.462450
208.075552	3613.044879	1.641550	-0.069323	3.467114
208.404634	3624.034019	1.646555	-0.069388	3.471759
208.784600	3635.095908	1.651559	-0.069462	3.476435
209.164417	3646.074474	1.656564	-0.069536	3.481069
209.592481	3657.114720	1.661569	-0.069619	3.485728
209.852987	3668.100419	1.666573	-0.069670	3.490339
210.183565	3679.137331	1.671578	-0.069735	3.494974
210.398564	3690.151520	1.676583	-0.069778	3.499579
210.946577	3701.154676	1.681588	-0.069884	3.504212
211.226008	3712.199818	1.686592	-0.069939	3.508825
211.510618	3723.221405	1.691597	-0.069995	3.513423
212.007603	3734.200967	1.696602	-0.070091	3.518022
212.369208	3745.228937	1.701606	-0.070162	3.522619
212.731876	3756.239568	1.706611	-0.070232	3.527203
213.159824	3767.269987	1.711616	-0.070315	3.531796
213.529103	3778.274807	1.716621	-0.070387	3.536366
214.029605	3789.267994	1.721625	-0.070484	3.540940
214.420046	3800.312311	1.726630	-0.070560	3.545517
214.664841	3811.324285	1.731635	-0.070609	3.550059
215.217540	3822.322119	1.736640	-0.070715	3.554623
215.521171	3833.370050	1.741644	-0.070775	3.559174
215.939671	3844.368744	1.746649	-0.070856	3.563711
216.116489	3855.435010	1.751654	-0.070892	3.568244
216.541291	3866.366410	1.756658	-0.070974	3.572743
217.028730	3877.428867	1.761663	-0.071069	3.577297
217.415772	3888.408852	1.766668	-0.071144	3.581800
217.817181	3899.454609	1.771673	-0.071222	3.586325
218.094571	3910.470607	1.776677	-0.071277	3.590820
218.257756	3921.486254	1.781682	-0.071310	3.595296
218.686718	3932.476113	1.786687	-0.071393	3.599785
219.095570	3943.536480	1.791692	-0.071473	3.604294
219.618595	3954.503347	1.796696	-0.071574	3.608773
219.882059	3965.571629	1.801701	-0.071626	3.613258
220.257591	3976.566025	1.806706	-0.071699	3.617721
220.709279	3987.572883	1.811710	-0.071787	3.622190
221.176955	3998.580183	1.816715	-0.071877	3.626656
221.511476	4009.604605	1.821720	-0.071942	3.631110
221.958993	4020.639651	1.826725	-0.072029	3.635573
222.078450	4031.654589	1.831729	-0.072054	3.639989
222.488916	4042.634732	1.836734	-0.072134	3.644416
222.701789	4053.683577	1.841739	-0.072177	3.648844
223.174441	4064.663038	1.846744	-0.072268	3.653267
223.611258	4075.729217	1.851748	-0.072353	3.657714
223.769561	4086.700480	1.856753	-0.072385	3.662090
224.196184	4097.769191	1.861758	-0.072468	3.666526
224.474049	4108.799877	1.866762	-0.072523	3.670927
225.053877	4119.806358	1.871767	-0.072634	3.675344
225.466427	4130.822754	1.876772	-0.072715	3.679743
225.757419	4141.854259	1.881777	-0.072772	3.684129
226.274855	4152.840329	1.886781	-0.072872	3.688515
226.648408	4163.876488	1.891786	-0.072945	3.692901
226.953183	4174.905032	1.896791	-0.073005	3.697272
227.267624	4185.897498	1.901795	-0.073066	3.701625
227.678038	4196.916547	1.906800	-0.073146	3.705992
227.933000	4207.946106	1.911805	-0.073197	3.710343
228.113334	4218.968219	1.916810	-0.073233	3.714677
228.595880	4229.955783	1.921814	-0.073326	3.719024
229.106766	4240.961319	1.926819	-0.073425	3.723376
229.377727	4252.021896	1.931824	-0.073479	3.727719
229.668369	4263.023237	1.936829	-0.073536	3.732037
230.199493	4274.019161	1.941833	-0.073638	3.736371
230.413214	4285.036613	1.946838	-0.073681	3.740677
230.867137	4296.063320	1.951843	-0.073769	3.745005
231.385156	4307.061017	1.956847	-0.073869	3.749324
231.808685	4318.090351	1.961852	-0.073951	3.753640
232.261236	4329.093059	1.966857	-0.074039	3.757943
