Wed Nov 23 19:44:20 2022

Number of Points = 2200
Depth (nm)	Load (µN)	Time (s)	Depth (V)	Load (V)
-3.145214	0.531448	0.000000	0.038323	0.945686
0.000000	6.720216	0.005005	0.037731	0.957100
2.630453	15.944772	0.010009	0.037235	0.972705
4.415144	26.780357	0.015014	0.036898	0.989998
5.877778	37.912861	0.020019	0.036620	1.007252
7.022919	49.134721	0.025024	0.036403	1.024174
8.026609	60.376621	0.030028	0.036212	1.040775
8.781407	71.613991	0.035033	0.036067	1.056979
10.256794	82.548722	0.040038	0.035788	1.072887
14.456606	93.137178	0.045043	0.034997	1.089455
16.483469	104.637067	0.050047	0.034614	1.105918
17.785243	115.997578	0.055052	0.034367	1.121604
19.165040	127.167241	0.060057	0.034105	1.136861
20.425667	138.315736	0.065061	0.033866	1.151833
22.006098	149.387038	0.070066	0.033566	1.166662
23.468417	160.511877	0.075071	0.033289	1.181317
24.818069	171.662261	0.080076	0.033033	1.195772
25.851463	182.843878	0.085080	0.032837	1.209949
27.130981	193.920125	0.090085	0.032594	1.223944
28.358112	205.018460	0.095090	0.032361	1.237783
29.340851	216.169484	0.100094	0.032174	1.251425
30.480042	227.221565	0.105099	0.031957	1.264870
32.122674	238.251016	0.110104	0.031646	1.278359
32.955397	249.470559	0.115109	0.031487	1.291585
34.010258	260.597081	0.120113	0.031286	1.304664
34.818655	271.692790	0.125118	0.031132	1.317477
35.923347	282.675986	0.130123	0.030922	1.330161
37.175089	293.751565	0.135128	0.030684	1.342884
38.551252	304.788510	0.140132	0.030423	1.355495
39.674232	315.940553	0.145137	0.030210	1.368013
40.775300	327.000851	0.150142	0.030001	1.380310
41.771941	338.117430	0.155146	0.029811	1.392518
42.956021	349.156572	0.160151	0.029586	1.404609
44.007201	360.216308	0.165156	0.029386	1.416568
45.100062	371.309888	0.170161	0.029178	1.428476
45.814529	382.445591	0.175165	0.029041	1.440188
46.930105	393.426392	0.180170	0.028829	1.451796
47.960959	404.532411	0.185175	0.028633	1.463405
48.889212	415.591433	0.190180	0.028456	1.474839
49.767302	426.651672	0.195184	0.028289	1.486168
50.744985	437.743355	0.200189	0.028102	1.497477
51.594248	448.790080	0.205194	0.027940	1.508611
52.885477	459.778913	0.210198	0.027695	1.519761
53.859548	470.908465	0.215203	0.027510	1.530855
54.912117	481.930823	0.220208	0.027310	1.541793
55.844335	493.009023	0.225213	0.027132	1.552666
56.938955	504.060320	0.230217	0.026924	1.563491
57.821263	515.134677	0.235222	0.026756	1.574193
58.768138	526.158257	0.240227	0.026575	1.584796
59.518104	537.274920	0.245232	0.026432	1.595348
60.414495	548.276375	0.250236	0.026261	1.605774
61.273154	559.364526	0.255241	0.026097	1.616198
61.974507	570.440310	0.260246	0.025963	1.626493
62.622773	581.476607	0.265250	0.025838	1.636671
63.758959	592.452224	0.270255	0.025622	1.646886
64.486963	603.554169	0.275260	0.025483	1.657021
65.591170	614.560327	0.280265	0.025273	1.667127
66.383841	625.643765	0.285269	0.025121	1.677143
67.341220	636.666572	0.290274	0.024939	1.687097
67.946492	647.797244	0.295279	0.024823	1.696977
68.762853	658.777683	0.300283	0.024667	1.706735
69.819976	669.776064	0.305288	0.024466	1.716525
70.446684	680.916144	0.310293	0.024345	1.726250
71.323260	691.902161	0.315298	0.024178	1.735865
72.081147	702.955581	0.320302	0.024033	1.745448
72.937783	714.001072	0.325307	0.023870	1.755001
73.711398	725.044957	0.330312	0.023722	1.764475
74.672320	736.071333	0.335317	0.023539	1.773939
75.219092	747.187750	0.340321	0.023434	1.783307
75.710068	758.199607	0.345326	0.023339	1.792523
76.849801	769.146433	0.350331	0.023122	1.801825
77.715347	780.255370	0.355335	0.022957	1.811132
78.625890	791.250252	0.360340	0.022783	1.820312
79.367713	802.331523	0.365345	0.022641	1.829467
80.066938	813.404179	0.370350	0.022508	1.838557
80.708855	824.415350	0.375354	0.022384	1.847537
81.658875	835.420033	0.380359	0.022203	1.856554
82.392195	846.493247	0.385364	0.022063	1.865521
83.294100	857.502685	0.390369	0.021891	1.874441
83.948440	868.556348	0.395373	0.021766	1.883286
84.867956	879.597027	0.400378	0.021590	1.892151
85.318090	890.668357	0.405383	0.021503	1.900871
86.308338	901.634970	0.410387	0.021315	1.909615
86.902441	912.728654	0.415392	0.021200	1.918310
87.477978	923.766508	0.420397	0.021090	1.926919
88.217143	934.774063	0.425402	0.020948	1.935509
88.932190	945.795590	0.430406	0.020811	1.944065
89.640433	956.860700	0.435411	0.020676	1.952615
90.439758	967.856417	0.440416	0.020523	1.961098
91.208935	978.904582	0.445421	0.020376	1.969576
91.950247	989.949356	0.450425	0.020234	1.978008
92.439836	1000.997893	0.455430	0.020139	1.986342
93.380389	1011.995268	0.460435	0.019960	1.994718
93.892114	1023.054585	0.465439	0.019861	2.002995
94.668767	1034.081262	0.470444	0.019713	2.011281
95.402183	1045.121291	0.475449	0.019573	2.019531
96.170654	1056.152291	0.480454	0.019426	2.027750
96.714885	1067.204521	0.485458	0.019321	2.035895
97.491977	1078.213566	0.490463	0.019172	2.044034
98.095204	1089.249547	0.495468	0.019056	2.052117
98.750440	1100.284260	0.500472	0.018931	2.060179
99.303980	1111.319370	0.505477	0.018824	2.068186
100.322287	1122.309863	0.510482	0.018630	2.076242
101.076839	1133.354263	0.515487	0.018486	2.084241
101.726098	1144.426157	0.520491	0.018361	2.092203
102.163655	1155.463618	0.525496	0.018277	2.100061
102.787669	1166.453128	0.530501	0.018157	2.107899
103.315359	1177.509685	0.535506	0.018055	2.115732
104.323100	1188.464721	0.540510	0.017863	2.123579
105.037148	1199.543925	0.545515	0.017727	2.131413
105.631601	1210.608772	0.550520	0.017612	2.139181
105.956682	1221.630389	0.555524	0.017549	2.146828
106.622515	1232.662283	0.560529	0.017421	2.154533
106.978347	1243.677134	0.565534	0.017351	2.162128
107.682613	1254.692581	0.570539	0.017216	2.169777
108.357614	1265.721825	0.575543	0.017087	2.177401
109.245181	1276.726532	0.580548	0.016918	2.185029
109.654859	1287.796626	0.585553	0.016838	2.192567
110.476903	1298.793976	0.590558	0.016681	2.200123
111.045353	1309.823827	0.595562	0.016572	2.207618
111.858661	1320.867263	0.600567	0.016416	2.215150
112.223410	1331.901243	0.605572	0.016345	2.222551
112.771651	1342.932952	0.610576	0.016240	2.229966
113.229882	1353.951424	0.615581	0.016151	2.237328
114.033373	1364.962047	0.620586	0.015998	2.244737
114.420167	1376.021665	0.625591	0.015922	2.252061
115.101284	1387.025570	0.630595	0.015792	2.259389
115.712510	1398.047689	0.635600	0.015674	2.266690
116.152700	1409.099441	0.640605	0.015589	2.273950
116.513493	1420.117013	0.645610	0.015518	2.281147
117.380077	1431.100123	0.650614	0.015353	2.288408
117.861699	1442.172032	0.655619	0.015260	2.295620
118.519807	1453.157957	0.660624	0.015134	2.302792
119.044793	1464.219884	0.665628	0.015033	2.309962
119.557621	1475.225975	0.670633	0.014934	2.317071
120.306289	1486.252147	0.675638	0.014790	2.324221
120.686284	1497.302926	0.680643	0.014716	2.331287
121.096823	1508.335299	0.685647	0.014637	2.338326
121.686157	1519.314916	0.690652	0.014523	2.345347
122.027604	1530.385076	0.695657	0.014457	2.352353
122.719792	1541.372665	0.700661	0.014324	2.359359
123.156967	1552.404318	0.705666	0.014239	2.366319
123.870493	1563.445537	0.710671	0.014103	2.373321
124.091178	1574.464815	0.715676	0.014058	2.380188
124.793258	1585.462277	0.720680	0.013924	2.387119
125.282771	1596.528590	0.725685	0.013829	2.394030
125.733517	1607.540310	0.730690	0.013742	2.400879
126.407448	1618.513278	0.735695	0.013613	2.407729
126.854817	1629.621472	0.740699	0.013526	2.414597
127.291222	1640.590377	0.745704	0.013442	2.421359
127.802288	1651.622008	0.750709	0.013343	2.428154
128.333051	1662.654838	0.755713	0.013241	2.434935
128.734893	1673.678055	0.760718	0.013163	2.441666
129.203346	1684.701918	0.765723	0.013072	2.448391
130.028058	1695.687935	0.770728	0.012914	2.455145
130.544818	1706.733205	0.775732	0.012815	2.461855
131.117583	1717.768310	0.780737	0.012704	2.468552
131.333663	1728.810353	0.785742	0.012661	2.475166
131.856010	1739.808757	0.790747	0.012560	2.481795
132.428878	1750.839895	0.795751	0.012450	2.488435
133.064440	1761.849700	0.800756	0.012328	2.495057
133.244583	1772.908469	0.805761	0.012292	2.501603
134.009589	1783.857325	0.810765	0.012145	2.508179
134.634609	1794.911343	0.815770	0.012025	2.514772
135.072494	1805.971142	0.820775	0.011941	2.521316
135.344998	1816.985930	0.825780	0.011887	2.527785
135.735059	1828.002843	0.830784	0.011811	2.534261
136.202762	1838.999117	0.835789	0.011720	2.540723
136.696487	1850.045651	0.840794	0.011625	2.547202
137.092749	1861.067112	0.845799	0.011548	2.553632
137.674357	1872.064736	0.850803	0.011436	2.560067
137.978797	1883.115348	0.855808	0.011376	2.566464
138.421848	1894.151243	0.860813	0.011290	2.572862
138.656449	1905.234391	0.865817	0.011243	2.579233
139.149532	1916.151875	0.870822	0.011148	2.585542
139.426120	1927.203919	0.875827	0.011094	2.591871
139.908562	1938.221175	0.880832	0.011000	2.598203
140.303761	1949.215712	0.885836	0.010924	2.604491
140.986787	1960.236337	0.890841	0.010793	2.610830
141.281062	1971.282144	0.895846	0.010735	2.617098
141.801598	1982.293074	0.900850	0.010634	2.623372
142.147219	1993.328055	0.905855	0.010567	2.629612
142.623081	2004.322133	0.910860	0.010475	2.635838
143.280401	2015.353693	0.915865	0.010349	2.642103
143.791841	2026.362378	0.920869	0.010250	2.648314
144.298875	2037.405475	0.925874	0.010152	2.654528
144.780162	2048.415818	0.930879	0.010059	2.660706
145.008434	2059.429174	0.935884	0.010013	2.666826
145.549940	2070.437928	0.940888	0.009909	2.672984
145.698065	2081.473563	0.945893	0.009879	2.679074
146.349225	2092.469164	0.950898	0.009754	2.685215
146.586282	2103.523053	0.955902	0.009706	2.691303
147.145839	2114.510578	0.960907	0.009599	2.697396
147.661427	2125.503134	0.965912	0.009499	2.703471
148.548630	2136.542389	0.970917	0.009330	2.709620
148.871274	2147.583597	0.975921	0.009267	2.715661
149.267258	2158.619179	0.980926	0.009190	2.721697
149.511242	2169.646554	0.985931	0.009141	2.727689
149.999340	2180.632720	0.990936	0.009047	2.733687
150.480174	2191.654651	0.995940	0.008954	2.739690
150.894716	2202.683129	1.000945	0.008873	2.745672
151.024796	2213.743065	1.005950	0.008846	2.751610
151.501617	2224.714848	1.010954	0.008754	2.757547
151.956574	2235.728873	1.015959	0.008666	2.763489
152.503079	2246.761466	1.020964	0.008561	2.769443
152.781044	2257.787529	1.025969	0.008506	2.775336
153.219044	2268.802156	1.030973	0.008421	2.781238
153.603568	2279.820720	1.035978	0.008346	2.787119
154.075125	2290.851919	1.040983	0.008255	2.793010
154.498013	2301.844888	1.045988	0.008173	2.798859
155.071302	2312.867580	1.050992	0.008063	2.804737
155.418284	2323.929561	1.055997	0.007995	2.810586
155.845313	2334.914787	1.061002	0.007912	2.816395
156.133476	2345.954932	1.066006	0.007855	2.822199
156.388599	2356.968348	1.071011	0.007804	2.827971
156.758084	2367.972760	1.076016	0.007732	2.833745
157.223914	2379.011857	1.081021	0.007642	2.839541
157.373173	2390.037222	1.086025	0.007611	2.845267
157.940560	2401.030877	1.091030	0.007502	2.851032
158.374489	2412.049227	1.096035	0.007418	2.856776
159.075839	2423.053405	1.101039	0.007284	2.862544
159.423753	2434.081696	1.106044	0.007216	2.868257
159.924095	2445.112938	1.111049	0.007119	2.873983
160.340411	2456.129017	1.116054	0.007038	2.879677
160.766399	2467.149105	1.121058	0.006956	2.885364
161.216154	2478.182917	1.126063	0.006869	2.891050
161.623541	2489.205221	1.131068	0.006789	2.896712
161.759092	2500.229302	1.136073	0.006761	2.902321
162.212127	2511.222774	1.141077	0.006673	2.907954
162.231960	2522.264763	1.146082	0.006667	2.913533
162.843589	2533.247561	1.151087	0.006550	2.919162
163.103774	2544.271970	1.156091	0.006498	2.924748
163.561896	2555.320878	1.161096	0.006409	2.930365
163.756783	2566.332042	1.166101	0.006370	2.935913
164.118654	2577.358412	1.171106	0.006299	2.941483
164.315541	2588.353621	1.176110	0.006260	2.947002
164.936716	2599.364923	1.181115	0.006140	2.952582
165.177674	2610.405125	1.186120	0.006092	2.958109
165.542107	2621.420620	1.191125	0.006021	2.963632
165.845896	2632.444554	1.196129	0.005962	2.969139
165.968623	2643.474613	1.201134	0.005936	2.974613
166.495198	2654.447932	1.206139	0.005834	2.980108
166.770991	2665.503931	1.211143	0.005780	2.985596
167.293066	2676.503701	1.216148	0.005679	2.991084
167.785693	2687.513410	1.221153	0.005584	2.996561
168.091401	2698.526167	1.226158	0.005524	3.002003
168.455247	2709.582640	1.231162	0.005453	3.007464
168.599217	2720.590059	1.236167	0.005423	3.012859
169.097692	2731.583311	1.241172	0.005327	3.018289
169.462714	2742.610643	1.246177	0.005256	3.023707
169.852956	2753.640302	1.251181	0.005180	3.029120
170.255762	2764.647037	1.256186	0.005101	3.034513
170.719167	2775.667289	1.261191	0.005012	3.039912
171.053129	2786.701718	1.266195	0.004946	3.045290
171.479991	2797.719842	1.271200	0.004864	3.050664
171.796129	2808.718847	1.276205	0.004802	3.056003
172.108351	2819.748360	1.281210	0.004740	3.061346
172.579425	2830.738435	1.286214	0.004649	3.066684
172.675327	2841.799796	1.291219	0.004628	3.071993
172.895322	2852.802965	1.296224	0.004584	3.077283
173.289959	2863.809449	1.301228	0.004508	3.082590
173.660937	2874.829233	1.306233	0.004435	3.087891
174.169126	2885.841475	1.311238	0.004337	3.093199
174.405333	2896.874750	1.316243	0.004290	3.098469
174.928233	2907.865305	1.321247	0.004189	3.103750
175.228917	2918.920365	1.326252	0.004130	3.109021
175.620291	2929.912142	1.331257	0.004054	3.114266
175.910802	2940.938715	1.336262	0.003997	3.119504
176.376478	2951.935152	1.341266	0.003907	3.124744
176.630266	2963.016943	1.346271	0.003856	3.129985
176.833637	2974.001848	1.351276	0.003815	3.135166
176.906291	2985.028218	1.356280	0.003799	3.140339
177.304545	2996.020004	1.361285	0.003722	3.145532
177.606004	3007.047398	1.366290	0.003662	3.150720
178.032776	3018.037108	1.371295	0.003579	3.155899
178.217848	3029.093935	1.376299	0.003542	3.161067
178.662172	3040.078408	1.381304	0.003456	3.166229
178.982379	3051.121595	1.386309	0.003393	3.171392
179.356633	3062.114685	1.391314	0.003320	3.176531
179.591354	3073.160589	1.396318	0.003273	3.181668
179.873131	3084.172277	1.401323	0.003218	3.186786
180.252360	3095.162740	1.406328	0.003144	3.191900
180.751733	3106.206257	1.411332	0.003047	3.197045
181.070991	3117.203380	1.416337	0.002985	3.202137
181.380295	3128.249175	1.421342	0.002924	3.207242
181.438675	3139.279166	1.426347	0.002910	3.212298
181.605405	3150.269908	1.431351	0.002876	3.217343
181.968234	3161.265142	1.436356	0.002806	3.222407
182.431930	3172.293465	1.441361	0.002716	3.227492
183.139299	3183.279573	1.446366	0.002580	3.232582
183.608729	3194.333814	1.451370	0.002490	3.237663
183.706855	3205.374433	1.456375	0.002468	3.242681
183.968746	3216.371285	1.461380	0.002417	3.247693
184.299912	3227.382051	1.466384	0.002352	3.252712
184.616805	3238.395573	1.471389	0.002289	3.257724
184.899686	3249.416728	1.476394	0.002234	3.262726
185.231622	3260.454902	1.481399	0.002169	3.267735
185.482137	3271.450914	1.486403	0.002119	3.272706
185.955475	3282.462099	1.491408	0.002027	3.277705
186.275072	3293.494784	1.496413	0.001965	3.282687
186.622041	3304.515766	1.501417	0.001897	3.287659
186.904454	3315.517626	1.506422	0.001841	3.292607
187.322933	3326.536762	1.511427	0.001760	3.297572
187.440688	3337.571569	1.516432	0.001735	3.302498
187.862091	3348.572397	1.521436	0.001653	3.307441
188.193696	3359.569872	1.526441	0.001588	3.312363
188.491695	3370.618263	1.531446	0.001530	3.317296
188.735157	3381.628261	1.536451	0.001481	3.322198
188.953936	3392.651152	1.541455	0.001437	3.327095
189.252338	3403.653078	1.546460	0.001379	3.331986
189.432711	3414.672234	1.551465	0.001342	3.336862
189.674131	3425.685460	1.556469	0.001294	3.341736
190.161821	3436.700240	1.561474	0.001200	3.346634
190.287104	3447.746245	1.566479	0.001174	3.351494
190.313699	3458.756314	1.571484	0.001166	3.356319
190.635626	3469.737691	1.576488	0.001103	3.361160
191.143551	3480.777353	1.581493	0.001005	3.366043
191.464980	3491.779177	1.586498	0.000942	3.370879
191.970574	3502.810008	1.591503	0.000844	3.375744
192.184236	3513.819810	1.596507	0.000801	3.380556
192.694203	3524.824401	1.601512	0.000703	3.385396
192.941754	3535.855968	1.606517	0.000654	3.390208
193.312997	3546.862378	1.611521	0.000581	3.395017
193.516508	3557.891125	1.616526	0.000540	3.399809
193.963502	3568.899548	1.621531	0.000454	3.404615
194.264409	3579.932781	1.626536	0.000395	3.409407
194.398638	3590.917186	1.631540	0.000367	3.414151
194.713098	3601.971534	1.636545	0.000305	3.418940
195.043052	3612.969690	1.641550	0.000240	3.423701
195.046313	3624.001266	1.646555	0.000237	3.428429
195.427437	3634.986362	1.651559	0.000163	3.433177
195.788564	3646.014494	1.656564	0.000092	3.437933
196.313963	3657.007665	1.661569	-0.000009	3.442688
196.654901	3668.071926	1.666573	-0.000076	3.447444
197.031046	3679.065007	1.671578	-0.000149	3.452168
197.100793	3690.099970	1.676583	-0.000165	3.456867
197.271034	3701.080372	1.681588	-0.000200	3.461548
197.706327	3712.116317	1.686592	-0.000284	3.466277
198.011220	3723.121698	1.691597	-0.000344	3.470972
198.145262	3734.159650	1.696602	-0.000372	3.475654
198.651861	3745.135519	1.701606	-0.000470	3.480346
198.993110	3756.195727	1.706611	-0.000536	3.485049
199.297772	3767.191440	1.711616	-0.000596	3.489714
199.624608	3778.215402	1.716621	-0.000660	3.494387
199.872928	3789.222325	1.721625	-0.000710	3.499038
200.160151	3800.243931	1.726630	-0.000766	3.503692
200.340762	3811.277470	1.731635	-0.000803	3.508334
200.569422	3822.279831	1.736640	-0.000848	3.512962
200.902200	3833.270818	1.741644	-0.000914	3.517590
201.068462	3844.318126	1.746649	-0.000948	3.522218
201.437087	3855.335647	1.751654	-0.001019	3.526849
201.396251	3866.373980	1.756658	-0.001014	3.531437
201.741120	3877.343127	1.761663	-0.001082	3.536033
202.076412	3888.364092	1.766668	-0.001148	3.540644
202.356310	3899.388335	1.771673	-0.001203	3.545244
202.790675	3910.396736	1.776677	-0.001287	3.549849
202.886403	3921.437177	1.781682	-0.001308	3.554423
204.167028	3932.204187	1.786687	-0.001551	3.559010
211.428681	3943.072355	1.791692	-0.002916	3.564296
213.587463	3954.432036	1.796696	-0.003324	3.569210
215.962115	3965.305244	1.801701	-0.003772	3.573941
217.693891	3976.451405	1.806706	-0.004100	3.578706
218.326201	3987.527702	1.811710	-0.004221	3.583315
218.646864	3998.535923	1.816715	-0.004284	3.587856
219.011137	4009.541367	1.821720	-0.004355	3.592395
219.318842	4020.566233	1.826725	-0.004416	3.596930
219.661995	4031.574376	1.831729	-0.004483	3.601456
219.898849	4042.610454	1.836734	-0.004530	3.605976
220.262055	4053.596978	1.841739	-0.004601	3.610483
220.496404	4064.630317	1.846744	-0.004648	3.614991
221.026528	4075.605169	1.851748	-0.004750	3.619500
221.400939	4086.674089	1.856753	-0.004823	3.624026
221.642633	4097.693581	1.861758	-0.004871	3.628511
221.930393	4108.761094	1.866762	-0.004928	3.633015
222.217798	4119.755250	1.871767	-0.004984	3.637484
222.568823	4130.753336	1.876772	-0.005053	3.641956
222.914235	4141.788458	1.881777	-0.005120	3.646436
223.086913	4152.803037	1.886781	-0.005155	3.650884
223.481275	4163.808548	1.891786	-0.005232	3.655347
223.627884	4174.840924	1.896791	-0.005262	3.659789
224.044776	4185.834457	1.901795	-0.005343	3.664238
224.639708	4196.836317	1.906800	-0.005458	3.668703
225.239989	4207.866341	1.911805	-0.005573	3.673175
225.741907	4218.892312	1.916810	-0.005670	3.677630
226.037941	4229.890436	1.921814	-0.005728	3.682046
226.527365	4240.938505	1.926819	-0.005823	3.686497
226.934402	4251.915871	1.931824	-0.005902	3.690906
227.416284	4262.946157	1.936829	-0.005995	3.695339
227.844302	4273.970309	1.941833	-0.006078	3.699757
228.100683	4284.980998	1.946838	-0.006129	3.704148
228.395706	4295.998870	1.951843	-0.006187	3.708540
228.482852	4307.041427	1.956847	-0.006206	3.712915
228.744292	4318.050257	1.961852	-0.006258	3.717290
228.977745	4329.040739	1.966857	-0.006304	3.721649
229.309211	4340.060150	1.971862	-0.006369	3.726024
229.528881	4351.066170	1.976866	-0.006413	3.730378
230.077438	4362.082881	1.981871	-0.006519	3.734764
230.128832	4373.117265	1.986876	-0.006531	3.739101
230.678345	4384.110916	1.991881	-0.006637	3.743468
230.920310	4395.159634	1.996885	-0.006685	3.747820
