Wed Nov 23 18:47:16 2022

Number of Points = 2200
Depth (nm)	Load (µN)	Time (s)	Depth (V)	Load (V)
0.000000	2.199437	0.000000	0.047982	0.918006
1.677809	7.403883	0.005005	0.047666	0.927343
3.903913	15.988524	0.010009	0.047246	0.942225
5.711814	26.512477	0.015014	0.046904	0.959625
7.096457	37.644728	0.020019	0.046642	0.977397
8.171384	48.863289	0.025024	0.046437	0.994808
9.063102	60.106530	0.030028	0.046267	1.011855
9.618697	71.372649	0.035033	0.046160	1.028473
10.229357	82.537636	0.040038	0.046043	1.044713
10.452971	93.781248	0.045043	0.045998	1.060613
10.976291	104.878705	0.050047	0.045897	1.076230
11.313884	116.057716	0.055052	0.045831	1.091641
11.681506	127.195508	0.060057	0.045759	1.106796
11.810597	138.376990	0.065061	0.045732	1.121689
12.007859	149.494534	0.070066	0.045692	1.136335
12.305524	160.591524	0.075071	0.045634	1.150816
12.573429	171.703058	0.080076	0.045581	1.165122
12.989817	182.805294	0.085080	0.045500	1.179310
13.200726	193.924229	0.090085	0.045458	1.193257
13.649786	204.991101	0.095090	0.045371	1.207085
24.455007	213.801008	0.100094	0.043341	1.222614
26.937379	226.533881	0.105099	0.042872	1.238987
28.194848	238.017418	0.110104	0.042633	1.253145
29.609101	249.208909	0.115109	0.042365	1.266870
30.920060	260.287521	0.120113	0.042116	1.280274
31.565282	271.543066	0.125118	0.041992	1.293463
32.317156	282.670979	0.130123	0.041849	1.306418
33.345667	293.661512	0.135128	0.041653	1.319204
34.313348	304.728242	0.140132	0.041469	1.331926
35.024905	315.872898	0.145137	0.041332	1.344511
35.985544	326.897188	0.150142	0.041149	1.356946
36.838120	337.994756	0.155146	0.040987	1.369305
37.673076	349.088288	0.160151	0.040827	1.381541
38.622329	360.111900	0.165156	0.040646	1.393639
39.721445	371.164575	0.170161	0.040437	1.405720
40.516349	382.309293	0.175165	0.040285	1.417679
41.575264	393.309597	0.180170	0.040084	1.429486
42.504446	404.412792	0.185175	0.039907	1.441254
43.386264	415.484556	0.190180	0.039739	1.452876
44.332438	426.566899	0.195184	0.039558	1.464439
45.150769	437.600272	0.200189	0.039402	1.475817
45.967941	448.714194	0.205194	0.039246	1.487186
46.724771	459.761364	0.210198	0.039101	1.498382
47.405468	470.847822	0.215203	0.038971	1.509505
48.385681	481.844023	0.220208	0.038784	1.520564
49.033479	492.959864	0.225213	0.038660	1.531543
49.906884	503.974723	0.230217	0.038493	1.542424
50.868614	515.010063	0.235222	0.038310	1.553278
51.721062	526.085837	0.240227	0.038147	1.564057
52.785572	537.121658	0.245232	0.037945	1.574795
53.400669	548.234410	0.250236	0.037827	1.585383
54.257781	559.253138	0.255241	0.037663	1.595892
54.842868	570.343543	0.260246	0.037551	1.606310
55.552985	581.397398	0.265250	0.037415	1.616667
56.499305	592.398022	0.270255	0.037234	1.626986
57.184522	603.476682	0.275260	0.037103	1.637225
57.897614	614.512503	0.280265	0.036967	1.647372
58.497484	625.599836	0.285269	0.036851	1.657466
59.391870	636.574171	0.290274	0.036681	1.667491
60.223236	647.659182	0.295279	0.036522	1.677533
61.087161	658.697052	0.300283	0.036357	1.687484
61.812594	669.747821	0.305288	0.036218	1.697345
62.534595	680.809056	0.310293	0.036080	1.707157
63.270441	691.858946	0.315298	0.035939	1.716906
63.983667	702.881222	0.320302	0.035803	1.726570
64.853461	713.933758	0.325307	0.035637	1.736252
65.525521	724.965158	0.330312	0.035508	1.745803
66.109352	736.051443	0.335317	0.035396	1.755322
66.662065	747.077890	0.340321	0.035289	1.764730
67.624718	758.083585	0.345326	0.035106	1.774191
68.176233	769.160956	0.350331	0.035000	1.783541
68.777368	780.216158	0.355335	0.034884	1.792838
69.471955	791.217588	0.360340	0.034751	1.802069
70.336698	802.236255	0.365345	0.034586	1.811316
71.377650	813.255451	0.370350	0.034388	1.820566
71.915881	824.381386	0.375354	0.034284	1.829713
72.447386	835.413589	0.380359	0.034182	1.838736
73.267204	846.414342	0.385364	0.034025	1.847771
73.635504	857.510809	0.390369	0.033953	1.856713
74.658263	868.447384	0.395373	0.033759	1.865665
75.207076	879.572886	0.400378	0.033653	1.874593
75.562640	890.608461	0.405383	0.033583	1.883355
76.289721	901.602119	0.410387	0.033444	1.892145
77.141594	912.631490	0.415392	0.033282	1.900955
77.626319	923.711502	0.420397	0.033188	1.909664
78.337122	934.717979	0.425402	0.033052	1.918338
78.927343	945.759003	0.430406	0.032938	1.926966
79.783780	956.767922	0.435411	0.032775	1.935602
80.308335	967.846224	0.440416	0.032674	1.944164
80.890171	978.858404	0.445421	0.032562	1.952654
81.438582	989.914125	0.450425	0.032456	1.961131
82.058847	1000.932548	0.455430	0.032337	1.969561
82.693282	1011.959248	0.460435	0.032215	1.977966
83.309328	1022.993252	0.465439	0.032097	1.986335
84.070410	1034.019384	0.470444	0.031952	1.994700
84.775415	1045.065873	0.475449	0.031817	2.003030
85.347374	1056.116440	0.480454	0.031707	2.011295
85.974421	1067.136567	0.485458	0.031586	2.019518
86.579976	1078.161786	0.490463	0.031470	2.027705
87.402782	1089.192886	0.495468	0.031313	2.035917
87.715920	1100.266173	0.500472	0.031251	2.044001
88.231574	1111.283452	0.505477	0.031152	2.052062
88.771170	1122.291534	0.510482	0.031048	2.060090
89.370857	1133.349993	0.515487	0.030932	2.068138
89.775855	1144.356029	0.520491	0.030854	2.076070
90.629117	1155.366923	0.525496	0.030691	2.084083
91.056702	1166.435223	0.530501	0.030608	2.092003
91.637750	1177.473505	0.535506	0.030496	2.099909
91.946075	1188.500891	0.540510	0.030436	2.107712
92.635196	1199.477894	0.545515	0.030304	2.115542
93.244710	1210.526660	0.550520	0.030186	2.123374
93.956811	1221.544590	0.555524	0.030050	2.131179
94.539896	1232.614571	0.560529	0.029938	2.138961
94.799250	1243.665648	0.565534	0.029887	2.146627
95.326573	1254.645993	0.570539	0.029785	2.154278
95.919462	1265.684415	0.575543	0.029671	2.161957
96.477111	1276.713551	0.580548	0.029564	2.169595
96.921431	1287.758220	0.585553	0.029477	2.177190
97.484277	1298.760106	0.590558	0.029369	2.184756
97.967565	1309.805738	0.595562	0.029276	2.192308
98.453783	1320.828088	0.600567	0.029182	2.199818
98.970052	1331.851503	0.605572	0.029082	2.207310
99.598767	1342.878691	0.610576	0.028961	2.214805
100.111951	1353.895939	0.615581	0.028862	2.222241
100.546012	1364.942433	0.620586	0.028778	2.229654
100.886794	1375.990062	0.625591	0.028712	2.237023
101.465287	1386.974228	0.630595	0.028600	2.244378
102.206732	1397.997500	0.635600	0.028458	2.251770
102.650250	1409.068432	0.640605	0.028372	2.259104
103.151658	1420.045126	0.645610	0.028276	2.266365
103.531179	1431.119849	0.650614	0.028202	2.273639
104.033059	1442.113703	0.655619	0.028105	2.280865
104.619274	1453.116788	0.660624	0.027992	2.288091
105.068794	1464.190331	0.665628	0.027905	2.295311
105.563146	1475.185309	0.670633	0.027809	2.302467
106.207005	1486.212212	0.675638	0.027686	2.309653
106.434301	1497.276063	0.680643	0.027641	2.316752
106.901669	1508.279855	0.685647	0.027550	2.323841
107.261254	1519.311630	0.690652	0.027480	2.330904
107.914414	1530.293830	0.695657	0.027355	2.337975
108.655976	1541.307328	0.700661	0.027213	2.345064
108.962272	1552.414447	0.705666	0.027153	2.352098
109.257587	1563.410556	0.710671	0.027094	2.359040
109.816569	1574.395371	0.715676	0.026987	2.366009
110.238183	1585.466924	0.720680	0.026905	2.372983
110.775253	1596.458716	0.725685	0.026801	2.379910
110.934863	1607.523043	0.730690	0.026769	2.386785
111.538486	1618.495402	0.735695	0.026653	2.393674
112.069203	1629.533487	0.740699	0.026550	2.400568
112.400670	1640.596810	0.745704	0.026486	2.407418
112.896126	1651.591933	0.750709	0.026390	2.414239
113.340668	1662.606676	0.755713	0.026304	2.421043
113.865081	1673.604743	0.760718	0.026203	2.427833
114.509083	1684.661954	0.765723	0.026079	2.434664
114.873665	1695.670058	0.770728	0.026008	2.441391
115.658338	1706.667425	0.775732	0.025858	2.448175
116.003927	1717.765804	0.780737	0.025790	2.454914
116.287456	1728.769484	0.785742	0.025734	2.461567
116.742423	1739.763300	0.790747	0.025646	2.468228
117.446358	1750.773606	0.795751	0.025511	2.474930
117.913476	1761.819216	0.800756	0.025421	2.481589
118.273398	1772.861849	0.805761	0.025351	2.488207
118.697567	1783.879144	0.810765	0.025269	2.494805
119.455127	1794.855413	0.815770	0.025124	2.501425
119.860834	1805.924934	0.820775	0.025045	2.508015
120.191942	1816.954620	0.825780	0.024980	2.514550
120.712190	1827.928353	0.830784	0.024880	2.521071
121.210611	1838.981969	0.835789	0.024783	2.527617
121.642907	1850.006911	0.840794	0.024699	2.534118
122.416398	1860.977297	0.845799	0.024552	2.540634
122.981595	1872.019730	0.850803	0.024443	2.547135
123.626894	1883.088307	0.855808	0.024319	2.553650
124.016744	1894.077827	0.860813	0.024243	2.560056
124.571536	1905.095262	0.865817	0.024136	2.566491
125.083927	1916.151520	0.870822	0.024037	2.572925
125.579774	1927.195860	0.875827	0.023942	2.579333
125.942546	1938.157187	0.880832	0.023871	2.585653
126.660971	1949.180144	0.885836	0.023733	2.592058
127.144519	1960.226090	0.890841	0.023640	2.598416
127.865367	1971.214547	0.895846	0.023502	2.604770
128.373976	1982.241288	0.900850	0.023404	2.611091
129.040598	1993.266770	0.905855	0.023276	2.617424
129.607612	2004.291400	0.910860	0.023167	2.623724
130.096643	2015.319453	0.915865	0.023072	2.629996
130.201743	2026.389259	0.920869	0.023050	2.636208
130.610593	2037.362384	0.925874	0.022970	2.642406
131.102170	2048.371658	0.930879	0.022875	2.648623
131.490325	2059.404669	0.935884	0.022800	2.654821
131.984350	2070.391386	0.940888	0.022704	2.660997
132.488666	2081.410058	0.945893	0.022607	2.667179
132.765967	2092.473805	0.950898	0.022552	2.673331
133.168454	2103.461784	0.955902	0.022474	2.679448
133.392455	2114.500120	0.960907	0.022429	2.685549
134.221984	2125.470175	0.965912	0.022271	2.691703
134.635634	2136.548860	0.970917	0.022191	2.697830
134.964296	2147.540884	0.975921	0.022126	2.703882
135.466293	2158.564090	0.980926	0.022029	2.709966
136.044364	2169.573169	0.985931	0.021918	2.716042
136.599907	2180.602060	0.990936	0.021811	2.722111
137.125088	2191.629418	0.995940	0.021710	2.728161
137.282549	2202.687560	1.000945	0.021678	2.734151
137.648678	2213.656910	1.005950	0.021606	2.740116
138.080965	2224.688051	1.010954	0.021522	2.746111
138.788188	2235.689048	1.015959	0.021387	2.752124
139.021231	2246.750884	1.020964	0.021340	2.758076
139.452406	2257.729130	1.025969	0.021257	2.764004
139.840007	2268.787994	1.030973	0.021181	2.769955
140.157544	2279.808311	1.035978	0.021119	2.775861
140.324822	2290.834589	1.040983	0.021085	2.781733
140.934824	2301.808789	1.045988	0.020968	2.787637
141.381539	2312.840778	1.050992	0.020881	2.793533
142.071998	2323.838470	1.055997	0.020749	2.799438
142.580437	2334.894912	1.061002	0.020651	2.805331
143.225973	2345.892061	1.066006	0.020527	2.811204
143.561241	2356.951502	1.071011	0.020461	2.817045
143.939346	2367.936630	1.076016	0.020388	2.822843
144.399336	2378.975775	1.081021	0.020299	2.828671
144.595502	2389.998632	1.086025	0.020259	2.834435
144.938073	2401.010274	1.091030	0.020192	2.840205
145.423568	2412.038522	1.096035	0.020098	2.845995
145.915867	2423.042367	1.101039	0.020003	2.851761
146.469865	2434.031246	1.106044	0.019896	2.857518
146.855337	2445.097984	1.111049	0.019821	2.863276
146.884570	2456.133647	1.116054	0.019813	2.868950
147.077665	2467.148659	1.121058	0.019774	2.874628
147.400764	2478.130415	1.126063	0.019711	2.880299
147.940370	2489.150251	1.131068	0.019607	2.886011
148.331919	2500.211672	1.136073	0.019531	2.891711
148.380835	2511.225431	1.141077	0.019519	2.897321
148.701337	2522.215506	1.146082	0.019456	2.902950
148.938841	2533.245931	1.151087	0.019409	2.908577
149.380906	2544.240961	1.156091	0.019323	2.914206
149.933816	2555.270936	1.161096	0.019216	2.919858
150.442302	2566.271989	1.166101	0.019118	2.925479
151.181551	2577.294610	1.171106	0.018977	2.931134
151.650202	2588.320996	1.176110	0.018886	2.936739
152.004126	2599.348408	1.181115	0.018817	2.942316
152.508143	2610.348356	1.186120	0.018720	2.947892
152.902162	2621.389375	1.191125	0.018643	2.953460
153.215691	2632.403348	1.196129	0.018581	2.958993
153.527030	2643.441476	1.201134	0.018520	2.964527
154.108491	2654.433184	1.206139	0.018409	2.970068
154.425583	2665.470626	1.211143	0.018346	2.975581
154.648631	2676.487188	1.216148	0.018302	2.981060
155.074267	2687.495962	1.221153	0.018219	2.986555
155.340266	2698.500107	1.226158	0.018166	2.992014
155.652466	2709.555844	1.231162	0.018105	2.997495
155.848120	2720.552674	1.236167	0.018066	3.002919
156.106444	2731.590932	1.241172	0.018015	3.008364
156.778500	2742.561418	1.246177	0.017886	3.013826
157.066888	2753.620515	1.251181	0.017829	3.019265
157.428262	2764.617019	1.256186	0.017758	3.024675
157.639431	2775.676756	1.261191	0.017716	3.030083
157.935107	2786.655836	1.266195	0.017658	3.035455
158.597858	2797.659558	1.271200	0.017531	3.040883
159.141205	2808.686454	1.276205	0.017426	3.046295
159.582811	2819.704428	1.281210	0.017340	3.051678
160.109756	2830.705189	1.286214	0.017239	3.057055
160.366390	2841.763029	1.291219	0.017188	3.062411
160.751541	2852.762517	1.296224	0.017113	3.067749
161.068671	2863.795974	1.301228	0.017051	3.073083
161.389452	2874.800853	1.306233	0.016988	3.078395
161.925352	2885.812173	1.311238	0.016884	3.083732
162.293017	2896.848553	1.316243	0.016813	3.089047
162.647080	2907.859152	1.321247	0.016744	3.094339
162.841602	2918.895505	1.326252	0.016704	3.099611
162.993994	2929.894185	1.331257	0.016673	3.104851
163.627187	2940.897370	1.336262	0.016551	3.110151
163.782747	2951.948157	1.341266	0.016520	3.115398
163.948578	2962.957784	1.346271	0.016486	3.120618
164.284371	2973.982971	1.351276	0.016420	3.125860
164.702012	2984.963057	1.356280	0.016339	3.131084
165.088673	2995.994996	1.361285	0.016264	3.136318
165.527534	3006.990444	1.366290	0.016179	3.141534
166.193330	3018.020727	1.371295	0.016051	3.146789
166.591155	3029.049860	1.376299	0.015974	3.151997
166.889277	3040.070638	1.381304	0.015915	3.157180
167.268831	3051.090679	1.386309	0.015841	3.162364
167.754478	3062.102185	1.391314	0.015747	3.167550
168.268328	3073.112563	1.396318	0.015648	3.172731
168.524798	3084.147227	1.401323	0.015597	3.177880
168.719187	3095.166180	1.406328	0.015558	3.183005
169.027994	3106.182587	1.411332	0.015497	3.188135
169.299733	3117.196022	1.416337	0.015443	3.193251
169.749265	3128.196702	1.421342	0.015356	3.198377
170.461566	3139.200955	1.426347	0.015220	3.203531
170.870678	3150.255909	1.431351	0.015140	3.208660
171.028471	3161.259391	1.436356	0.015108	3.213723
171.401570	3172.284907	1.441361	0.015035	3.218817
171.662241	3183.273964	1.446366	0.014984	3.223871
172.014970	3194.325153	1.451370	0.014915	3.228958
172.326161	3205.322425	1.456375	0.014854	3.234006
172.524039	3216.357551	1.461380	0.014814	3.239049
172.982404	3227.343201	1.466384	0.014725	3.244096
173.464425	3238.369254	1.471389	0.014632	3.249156
174.039911	3249.371584	1.476394	0.014521	3.254210
174.453401	3260.413991	1.481399	0.014441	3.259252
175.014375	3271.401072	1.486403	0.014333	3.264281
175.234496	3282.473675	1.491408	0.014289	3.269297
175.604030	3293.447712	1.496413	0.014217	3.274280
175.925293	3304.496506	1.501417	0.014154	3.279282
176.354667	3315.469532	1.506422	0.014071	3.284257
176.828431	3326.522319	1.511427	0.013979	3.289265
177.069692	3337.542799	1.516432	0.013931	3.294221
177.343663	3348.539283	1.521436	0.013877	3.299164
177.733507	3359.553158	1.526441	0.013801	3.304121
178.047706	3370.591463	1.531446	0.013739	3.309072
178.346725	3381.587642	1.536451	0.013680	3.313996
178.596140	3392.644855	1.541455	0.013631	3.318932
179.148464	3403.601741	1.546460	0.013525	3.323855
179.538848	3414.659500	1.551465	0.013449	3.328794
179.807520	3425.652538	1.556469	0.013395	3.333683
180.292438	3436.665238	1.561474	0.013302	3.338600
180.813332	3447.685900	1.566479	0.013201	3.343517
181.178813	3458.726705	1.571484	0.013130	3.348417
181.603835	3469.728098	1.576488	0.013047	3.353299
181.729068	3480.764901	1.581493	0.013021	3.358153
182.089017	3491.762392	1.586498	0.012951	3.363012
182.508631	3502.793661	1.591503	0.012869	3.367885
182.882782	3513.785383	1.596507	0.012797	3.372729
183.057489	3524.826340	1.601512	0.012761	3.377562
183.337775	3535.824234	1.606517	0.012706	3.382383
183.526294	3546.845119	1.611521	0.012668	3.387195
183.944916	3557.859197	1.616526	0.012586	3.392026
184.341152	3568.880504	1.621531	0.012509	3.396850
184.767741	3579.881227	1.626536	0.012426	3.401662
184.926563	3590.932915	1.631540	0.012394	3.406457
185.211417	3601.916676	1.636545	0.012338	3.411231
185.515227	3612.952147	1.641550	0.012278	3.416022
186.136014	3623.934805	1.646555	0.012159	3.420822
186.544160	3634.978058	1.651559	0.012080	3.425616
186.996344	3645.983442	1.656564	0.011992	3.430392
187.260922	3657.015082	1.661569	0.011940	3.435150
187.547623	3668.023285	1.666573	0.011883	3.439895
187.821042	3679.058680	1.671578	0.011829	3.444642
188.343802	3690.058906	1.676583	0.011728	3.449398
188.553655	3701.076948	1.681588	0.011686	3.454117
188.895703	3712.106077	1.686592	0.011619	3.458851
189.096472	3723.092547	1.691597	0.011579	3.463543
189.460184	3734.134625	1.696602	0.011508	3.468271
189.764153	3745.138521	1.701606	0.011448	3.472969
190.122513	3756.147823	1.706611	0.011378	3.477670
190.348579	3767.178380	1.711616	0.011333	3.482358
190.799788	3778.182982	1.716621	0.011246	3.487055
190.961766	3789.206500	1.721625	0.011212	3.491720
191.281001	3800.210771	1.726630	0.011150	3.496389
191.721004	3811.251280	1.731635	0.011065	3.501080
192.181898	3822.231348	1.736640	0.010975	3.505742
192.294217	3833.277622	1.741644	0.010952	3.510386
192.539231	3844.300963	1.746649	0.010903	3.515029
192.725143	3855.302154	1.751654	0.010865	3.519650
193.165448	3866.335556	1.756658	0.010780	3.524307
193.577992	3877.356298	1.761663	0.010700	3.528949
193.807014	3888.332236	1.766668	0.010654	3.533546
193.946645	3899.382227	1.771673	0.010625	3.538158
194.429725	3910.359734	1.776677	0.010532	3.542772
194.899761	3921.399963	1.781682	0.010441	3.547404
195.333855	3932.392382	1.786687	0.010357	3.552006
195.735906	3943.424726	1.791692	0.010278	3.556616
196.202502	3954.437707	1.796696	0.010188	3.561218
196.260257	3965.480918	1.801701	0.010175	3.565782
196.669755	3976.464858	1.806706	0.010095	3.570354
196.833468	3987.503549	1.811710	0.010062	3.574915
197.325562	3998.485747	1.816715	0.009967	3.579484
197.545779	4009.535608	1.821720	0.009922	3.584045
197.856436	4020.543499	1.826725	0.009861	3.588592
198.134051	4031.571434	1.831729	0.009807	3.593138
198.401222	4042.578955	1.836734	0.009754	3.597669
198.769979	4053.585685	1.841739	0.009682	3.602205
200.476371	4064.342957	1.846744	0.009359	3.606779
206.790295	4075.392449	1.851748	0.008172	3.611966
208.114857	4086.599316	1.856753	0.007920	3.616668
208.884569	4097.650437	1.861758	0.007773	3.621240
209.741865	4108.676013	1.866762	0.007609	3.625806
210.271975	4119.720616	1.871767	0.007507	3.630337
210.908469	4130.728904	1.876772	0.007385	3.634860
211.594017	4141.742351	1.881777	0.007254	3.639385
212.177748	4152.783907	1.886781	0.007141	3.643904
212.383480	4163.797018	1.891786	0.007100	3.648365
212.714256	4174.810178	1.896791	0.007035	3.652835
212.900941	4185.826187	1.901795	0.006998	3.657285
213.506992	4196.815293	1.906800	0.006881	3.661763
213.706740	4207.878598	1.911805	0.006841	3.666222
214.037192	4218.851800	1.916810	0.006776	3.670653
214.249599	4229.889071	1.921814	0.006734	3.675092
214.716431	4240.885640	1.926819	0.006643	3.679536
214.980532	4251.934176	1.931824	0.006591	3.683975
215.490562	4262.916227	1.936829	0.006493	3.688407
215.694285	4273.971637	1.941833	0.006452	3.692831
216.215230	4284.960770	1.946838	0.006351	3.697256
216.532331	4295.989195	1.951843	0.006289	3.701670
216.887840	4307.002159	1.956847	0.006219	3.706077
217.042015	4318.009236	1.961852	0.006188	3.710455
217.551786	4329.004048	1.966857	0.006089	3.714860
218.078737	4340.027650	1.971862	0.005988	3.719272
218.557493	4351.059912	1.976866	0.005895	3.723678
218.985642	4362.083141	1.981871	0.005812	3.728070
219.552044	4373.068882	1.986876	0.005703	3.732456
219.739225	4384.120873	1.991881	0.005665	3.736824
220.154066	4395.107272	1.996885	0.005585	3.741184
220.405834	4406.137001	2.001890	0.005535	3.745539
220.918197	4417.120574	2.006895	0.005436	3.749898
