Wed Nov 23 18:47:16 2022

Number of Points = 2200
Depth (nm)	Load (µN)	Time (s)	Depth (V)	Load (V)
-2.981554	0.510940	0.000000	0.017007	1.009178
0.000000	7.123718	0.005005	0.016446	1.020371
2.440359	16.507757	0.010009	0.015986	1.035104
4.109905	27.374613	0.015014	0.015670	1.051306
5.462613	38.548546	0.020019	0.015413	1.067523
6.627619	49.714756	0.025024	0.015192	1.083391
7.980705	60.774463	0.030028	0.014935	1.098980
10.238146	71.800178	0.035033	0.014509	1.114744
10.889514	83.219435	0.040038	0.014384	1.130030
13.705904	93.829947	0.045043	0.013853	1.145095
16.601670	105.041734	0.050047	0.013306	1.160762
18.940722	116.166725	0.055052	0.012865	1.175853
20.262270	127.578817	0.060057	0.012614	1.190645
21.586964	138.705203	0.065061	0.012363	1.204908
23.041374	149.800191	0.070066	0.012087	1.219021
24.588738	160.885509	0.075071	0.011794	1.233002
25.996219	172.017418	0.080076	0.011527	1.246819
27.232962	183.141069	0.085080	0.011292	1.260401
28.533105	194.235510	0.090085	0.011046	1.273830
29.546968	205.372105	0.095090	0.010853	1.287048
30.987136	216.444434	0.100094	0.010580	1.300233
32.273229	227.522986	0.105099	0.010336	1.313229
33.491548	238.620187	0.110104	0.010104	1.326091
34.621795	249.707916	0.115109	0.009889	1.338782
35.786284	260.782228	0.120113	0.009668	1.351352
37.023322	271.844679	0.125118	0.009433	1.363822
38.206994	282.936677	0.130123	0.009208	1.376188
39.301361	294.051359	0.135128	0.009000	1.388434
40.289405	305.122348	0.140132	0.008812	1.400485
41.155764	316.201910	0.145137	0.008647	1.412396
42.391324	327.246515	0.150142	0.008412	1.424309
43.251545	338.347840	0.155146	0.008248	1.436041
44.290172	349.400048	0.160151	0.008051	1.447694
45.367703	360.449842	0.165156	0.007846	1.459264
46.438283	371.508099	0.170161	0.007642	1.470748
47.618008	382.554294	0.175165	0.007418	1.482170
48.987551	393.591666	0.180170	0.007158	1.493563
49.967379	404.718243	0.185175	0.006972	1.504819
50.748386	415.831550	0.190180	0.006822	1.515908
51.622171	426.853798	0.195184	0.006656	1.526861
52.669299	437.901235	0.200189	0.006456	1.537819
53.921400	448.896183	0.205194	0.006219	1.548719
54.752397	460.049424	0.210198	0.006060	1.559549
55.879931	471.023273	0.215203	0.005846	1.570235
56.889002	482.125042	0.220208	0.005654	1.580928
57.660414	493.215297	0.225213	0.005506	1.591459
58.627550	504.219403	0.230217	0.005322	1.601906
59.809050	515.246217	0.235222	0.005098	1.612375
60.897804	526.327049	0.240227	0.004890	1.622795
61.859822	537.378160	0.245232	0.004707	1.633080
62.713839	548.451914	0.250236	0.004544	1.643287
63.459116	559.499762	0.255241	0.004402	1.653372
64.457378	570.527425	0.260246	0.004212	1.663458
65.105496	581.609946	0.265250	0.004087	1.673421
65.943671	592.654569	0.270255	0.003927	1.683351
66.633660	603.690671	0.275260	0.003795	1.693169
67.405902	614.751182	0.280265	0.003647	1.702977
68.297912	625.750635	0.285269	0.003477	1.712712
69.706462	636.747670	0.290274	0.003210	1.722545
70.704009	647.817699	0.295279	0.003020	1.732260
71.700537	658.887031	0.300283	0.002831	1.741920
72.382799	669.979394	0.305288	0.002700	1.751452
73.195425	680.984805	0.310293	0.002545	1.760899
74.053997	692.025665	0.315298	0.002381	1.770337
74.922244	703.083226	0.320302	0.002215	1.779741
75.702553	714.119665	0.325307	0.002066	1.789053
76.504062	725.164574	0.330312	0.001913	1.798329
77.397022	736.168259	0.335317	0.001743	1.807550
78.339571	747.239222	0.340321	0.001563	1.816792
78.876523	758.295746	0.345326	0.001460	1.825861
79.784564	769.311867	0.350331	0.001286	1.834957
80.441641	780.362457	0.355335	0.001160	1.843965
81.243240	791.400655	0.360340	0.001007	1.852958
81.859620	802.466838	0.365345	0.000889	1.861880
82.567445	813.474950	0.370350	0.000753	1.870737
83.315515	824.515677	0.375354	0.000610	1.879589
84.383796	835.496082	0.380359	0.000407	1.888440
85.392432	846.562689	0.385364	0.000215	1.897299
86.023170	857.628514	0.390369	0.000094	1.906014
86.567766	868.672154	0.395373	-0.000011	1.914650
87.354633	879.693641	0.400378	-0.000161	1.923294
88.091300	890.742189	0.405383	-0.000302	1.931906
88.632668	901.779190	0.410387	-0.000407	1.940419
89.387870	912.784169	0.415392	-0.000551	1.948927
89.941566	923.854280	0.420397	-0.000658	1.957395
90.620889	934.878082	0.425402	-0.000788	1.965823
91.392439	945.861721	0.430406	-0.000935	1.974209
92.031772	956.950073	0.435411	-0.001058	1.982603
92.686287	967.969159	0.440416	-0.001184	1.990914
93.213307	979.016679	0.445421	-0.001285	1.999178
94.183493	989.987724	0.450425	-0.001470	2.007464
94.900568	1001.089717	0.455430	-0.001607	2.015748
95.565713	1012.071871	0.460435	-0.001735	2.023897
96.336500	1023.134022	0.465439	-0.001882	2.032098
96.641209	1034.221845	0.470444	-0.001942	2.040169
97.597824	1045.129014	0.475449	-0.002124	2.048238
98.505140	1056.232439	0.480454	-0.002297	2.056404
99.159960	1067.276582	0.485458	-0.002423	2.064433
99.877573	1078.266427	0.490463	-0.002560	2.072407
100.381134	1089.345924	0.495468	-0.002658	2.080363
101.011138	1100.352168	0.500472	-0.002778	2.088266
101.985528	1111.356096	0.505477	-0.002964	2.096221
102.620350	1122.422076	0.510482	-0.003086	2.104107
103.288466	1133.430526	0.515487	-0.003214	2.111931
103.864120	1144.505089	0.520491	-0.003325	2.119751
104.489919	1155.481974	0.525496	-0.003445	2.127486
104.997500	1166.578276	0.530501	-0.003543	2.135247
105.354080	1177.584840	0.535506	-0.003613	2.142883
106.156891	1188.556427	0.540510	-0.003766	2.150571
106.778828	1199.630484	0.545515	-0.003885	2.158259
107.453891	1210.627690	0.550520	-0.004015	2.165881
108.186045	1221.680456	0.555524	-0.004155	2.173525
108.766952	1232.690033	0.560529	-0.004267	2.181079
109.659169	1243.714963	0.565534	-0.004437	2.188688
110.486936	1254.729420	0.570539	-0.004595	2.196248
110.838711	1265.824198	0.575543	-0.004663	2.203729
111.465877	1276.821065	0.580548	-0.004784	2.211181
111.836088	1287.875576	0.585553	-0.004856	2.218589
112.499933	1298.847905	0.590558	-0.004983	2.225982
113.218459	1309.877748	0.595562	-0.005121	2.233401
113.840184	1320.932717	0.600567	-0.005240	2.240790
114.577309	1331.931796	0.605572	-0.005381	2.248144
114.965665	1343.033902	0.610576	-0.005457	2.255464
115.505655	1353.999720	0.615581	-0.005561	2.262705
116.017606	1365.010234	0.620586	-0.005660	2.269945
116.748005	1376.048202	0.625591	-0.005800	2.277227
117.535246	1387.065114	0.630595	-0.005950	2.284484
118.005890	1398.105761	0.635600	-0.006041	2.291666
118.370718	1409.166724	0.640605	-0.006112	2.298815
119.084927	1420.128466	0.645610	-0.006249	2.305953
119.770683	1431.178615	0.650614	-0.006380	2.313118
120.391388	1442.205562	0.655619	-0.006500	2.320233
120.969614	1453.220080	0.660624	-0.006611	2.327309
121.785684	1464.260405	0.665628	-0.006767	2.334430
122.204466	1475.284660	0.670633	-0.006848	2.341435
122.757521	1486.305618	0.675638	-0.006955	2.348446
123.273853	1497.347995	0.680643	-0.007054	2.355441
123.733320	1508.367178	0.685647	-0.007143	2.362389
124.291342	1519.377890	0.690652	-0.007251	2.369332
124.811817	1530.400045	0.695657	-0.007351	2.376253
125.539895	1541.414816	0.700661	-0.007490	2.383192
126.309703	1552.432544	0.705666	-0.007637	2.390121
126.787661	1563.488507	0.710671	-0.007730	2.396994
127.274982	1574.517086	0.715676	-0.007824	2.403832
127.734013	1585.537364	0.720680	-0.007913	2.410640
128.507851	1596.525196	0.725685	-0.008061	2.417472
129.070399	1607.573364	0.730690	-0.008169	2.424278
129.595269	1618.592590	0.735695	-0.008270	2.431041
130.186357	1629.614600	0.740699	-0.008384	2.437799
130.392312	1640.687507	0.745704	-0.008425	2.444494
130.877879	1651.663904	0.750709	-0.008519	2.451167
131.432936	1662.692698	0.755713	-0.008626	2.457866
131.854684	1673.716732	0.760718	-0.008708	2.464519
132.596653	1684.719849	0.765723	-0.008850	2.471202
133.155497	1695.756844	0.770728	-0.008957	2.477853
133.464892	1706.802957	0.775732	-0.009018	2.484443
134.137870	1717.784693	0.780737	-0.009147	2.491047
134.857640	1728.829457	0.785742	-0.009285	2.497679
135.491921	1739.827918	0.790747	-0.009407	2.504250
135.906154	1750.893655	0.795751	-0.009487	2.510801
136.642172	1761.862603	0.800756	-0.009628	2.517339
137.228055	1772.923192	0.805761	-0.009741	2.523886
137.661959	1783.938639	0.810765	-0.009825	2.530360
138.280556	1794.952363	0.815770	-0.009944	2.536851
138.889864	1805.997097	0.820775	-0.010061	2.543342
139.146859	1817.016096	0.825780	-0.010112	2.549736
139.776001	1828.013029	0.830784	-0.010232	2.556169
140.215975	1839.062956	0.835789	-0.010318	2.562582
140.932621	1850.047468	0.840794	-0.010455	2.568993
141.305053	1861.174695	0.845799	-0.010528	2.575405
141.651215	1872.131684	0.850803	-0.010595	2.581700
142.339821	1883.105674	0.855808	-0.010727	2.588051
143.013945	1894.153644	0.860813	-0.010856	2.594426
143.635734	1905.160115	0.865817	-0.010976	2.600751
144.218966	1916.193264	0.870822	-0.011088	2.607070
144.632020	1927.253061	0.875827	-0.011168	2.613357
145.028792	1938.215031	0.880832	-0.011245	2.619572
145.978212	1949.230864	0.885836	-0.011426	2.625900
146.714044	1960.252482	0.890841	-0.011567	2.632178
147.507875	1971.274493	0.895846	-0.011719	2.638452
148.212680	1982.314716	0.900850	-0.011854	2.644704
148.822342	1993.364310	0.905855	-0.011971	2.650930
149.376796	2004.367442	0.910860	-0.012078	2.657106
149.811807	2015.383811	0.915865	-0.012162	2.663254
150.413047	2026.397904	0.920869	-0.012278	2.669415
150.947785	2037.433117	0.925874	-0.012381	2.675562
151.383990	2048.435973	0.930879	-0.012465	2.681660
151.814364	2059.464004	0.935884	-0.012549	2.687757
152.501575	2070.450767	0.940888	-0.012680	2.693861
153.055895	2081.481183	0.945893	-0.012787	2.699953
153.615670	2092.510156	0.950898	-0.012895	2.706030
153.971662	2103.541125	0.955902	-0.012964	2.712060
154.570698	2114.551212	0.960907	-0.013079	2.718107
154.730271	2125.594974	0.965912	-0.013112	2.724084
155.271464	2136.594344	0.970917	-0.013216	2.730088
155.536957	2147.647567	0.975921	-0.013269	2.736061
156.139437	2158.599054	0.980926	-0.013385	2.742024
156.716024	2169.648815	0.985931	-0.013496	2.748021
156.981365	2180.679041	0.990936	-0.013548	2.753943
157.516217	2191.696581	0.995940	-0.013651	2.759890
157.951102	2202.709745	1.000945	-0.013736	2.765805
158.502578	2213.738345	1.005950	-0.013842	2.771735
159.004302	2224.751179	1.010954	-0.013939	2.777636
159.463635	2235.756818	1.015959	-0.014028	2.783513
160.017402	2246.782408	1.020964	-0.014134	2.789404
160.633382	2257.807264	1.025969	-0.014253	2.795291
161.167572	2268.823700	1.030973	-0.014356	2.801149
161.828859	2279.823758	1.035978	-0.014482	2.807006
162.372504	2290.886535	1.040983	-0.014587	2.812864
162.932031	2301.881059	1.045988	-0.014695	2.818678
163.190310	2312.909310	1.050992	-0.014746	2.824448
163.793185	2323.930892	1.055997	-0.014862	2.830258
164.463126	2334.927924	1.061002	-0.014990	2.836054
164.782087	2345.987136	1.066006	-0.015053	2.841814
165.155756	2356.989801	1.071011	-0.015126	2.847542
165.531072	2368.029760	1.076016	-0.015199	2.853278
165.800446	2379.013590	1.081021	-0.015252	2.858956
166.492447	2390.034673	1.086025	-0.015385	2.864709
166.914646	2401.066971	1.091030	-0.015467	2.870414
167.450348	2412.070903	1.096035	-0.015570	2.876110
167.912974	2423.121573	1.101039	-0.015659	2.881807
168.347944	2434.100420	1.106044	-0.015744	2.887453
168.858960	2445.159318	1.111049	-0.015842	2.893139
169.248225	2456.153732	1.116054	-0.015918	2.898763
169.817226	2467.160755	1.121058	-0.016028	2.904409
170.292491	2478.208602	1.126063	-0.016120	2.910051
170.718015	2489.223445	1.131068	-0.016202	2.915658
171.063588	2500.255129	1.136073	-0.016270	2.921249
171.370451	2511.247196	1.141077	-0.016330	2.926805
171.787682	2522.266880	1.146082	-0.016411	2.932380
172.275819	2533.268294	1.151087	-0.016505	2.937946
172.743024	2544.321961	1.156091	-0.016596	2.943525
173.033805	2555.331331	1.161096	-0.016653	2.949044
173.544608	2566.359747	1.166101	-0.016752	2.954595
173.814852	2577.368251	1.171106	-0.016805	2.960090
174.329963	2588.387188	1.176110	-0.016904	2.965616
174.649545	2599.434516	1.181115	-0.016967	2.971117
175.019416	2610.413907	1.186120	-0.017039	2.976581
175.348146	2621.428227	1.191125	-0.017104	2.982046
175.687908	2632.475716	1.196129	-0.017170	2.987520
176.146441	2643.457028	1.201134	-0.017259	2.992968
176.597329	2654.508453	1.206139	-0.017346	2.998439
177.100550	2665.489936	1.211143	-0.017443	3.003874
177.486299	2676.553475	1.216148	-0.017518	3.009321
177.899090	2687.524659	1.221153	-0.017599	3.014718
178.548791	2698.547867	1.226158	-0.017723	3.020165
178.909364	2709.589382	1.231162	-0.017794	3.025568
179.353855	2720.612995	1.236167	-0.017880	3.030966
179.734898	2731.622673	1.241172	-0.017954	3.036337
180.196118	2742.640626	1.246177	-0.018043	3.041715
180.638888	2753.637993	1.251181	-0.018129	3.047071
181.205905	2764.665623	1.256186	-0.018238	3.052449
181.711487	2775.666472	1.261191	-0.018336	3.057796
182.144402	2786.724436	1.266195	-0.018420	3.063150
182.472003	2797.723031	1.271200	-0.018484	3.068452
182.987133	2808.752758	1.276205	-0.018583	3.073786
183.300662	2819.756403	1.281210	-0.018645	3.079070
183.705362	2830.785777	1.286214	-0.018724	3.084369
184.181387	2841.794991	1.291219	-0.018816	3.089660
184.387326	2852.829006	1.296224	-0.018857	3.094916
184.677646	2863.847135	1.301228	-0.018914	3.100167
184.977183	2874.865652	1.306233	-0.018973	3.105410
185.516195	2885.862927	1.311238	-0.019077	3.110668
185.905925	2896.884227	1.316243	-0.019153	3.115907
186.258378	2907.913526	1.321247	-0.019222	3.121136
186.702357	2918.930764	1.326252	-0.019308	3.126363
187.033905	2929.941904	1.331257	-0.019373	3.131563
187.288711	2940.962151	1.336262	-0.019423	3.136749
187.874992	2951.955194	1.341266	-0.019536	3.141958
188.296784	2963.000574	1.346271	-0.019618	3.147160
188.731078	2973.998524	1.351276	-0.019702	3.152333
189.086124	2985.042230	1.356280	-0.019771	3.157508
189.312757	2996.041519	1.361285	-0.019817	3.162636
189.689450	3007.106914	1.366290	-0.019890	3.167807
189.953793	3018.056503	1.371295	-0.019942	3.172901
190.429387	3029.101269	1.376299	-0.020034	3.178059
190.701521	3040.120584	1.381304	-0.020088	3.183170
190.995108	3051.150973	1.386309	-0.020146	3.188280
191.334468	3062.143176	1.391314	-0.020212	3.193370
191.743193	3073.171315	1.396318	-0.020292	3.198478
192.189910	3084.172342	1.401323	-0.020378	3.203570
192.738678	3095.203491	1.406328	-0.020484	3.208682
192.927499	3106.222035	1.411332	-0.020522	3.213731
193.316362	3117.244855	1.416337	-0.020598	3.218802
193.765871	3128.238380	1.421342	-0.020685	3.223858
194.183341	3139.263697	1.426347	-0.020766	3.228917
194.762932	3150.258605	1.431351	-0.020878	3.233975
195.464984	3161.296816	1.436356	-0.021012	3.239061
195.800824	3172.302180	1.441361	-0.021078	3.244076
196.252474	3183.351889	1.446366	-0.021165	3.249119
196.752150	3194.336051	1.451370	-0.021262	3.254130
197.043239	3205.387778	1.456375	-0.021319	3.259137
197.345487	3216.380524	1.461380	-0.021379	3.264111
197.700485	3227.441455	1.466384	-0.021448	3.269114
198.030276	3238.395665	1.471389	-0.021512	3.274059
198.551666	3249.449042	1.476394	-0.021613	3.279065
198.790459	3260.448579	1.481399	-0.021661	3.284004
199.247682	3271.495880	1.486403	-0.021749	3.288984
199.525676	3282.478013	1.491408	-0.021804	3.293904
199.797072	3293.524446	1.496413	-0.021858	3.298845
200.226064	3304.472449	1.501417	-0.021941	3.303755
200.521619	3315.582315	1.506422	-0.021999	3.308712
200.957324	3326.535819	1.511427	-0.022083	3.313610
201.125398	3337.608739	1.516432	-0.022118	3.318520
201.476809	3348.570467	1.521436	-0.022186	3.323397
202.021334	3359.606135	1.526441	-0.022291	3.328322
202.324752	3370.608862	1.531446	-0.022351	3.333196
202.880404	3381.634353	1.536451	-0.022458	3.338105
203.337291	3392.641752	1.541455	-0.022546	3.342985
203.490161	3403.711393	1.546460	-0.022578	3.347848
203.997128	3414.642532	1.551465	-0.022676	3.352687
204.415647	3425.735129	1.556469	-0.022757	3.357579
204.897555	3436.713209	1.561474	-0.022850	3.362421
205.348695	3447.761465	1.566479	-0.022938	3.367283
205.648103	3458.739235	1.571484	-0.022996	3.372089
205.927472	3469.781781	1.576488	-0.023052	3.376913
206.254916	3480.761309	1.581493	-0.023116	3.381709
206.757569	3491.819707	1.586498	-0.023213	3.386554
207.141540	3502.811853	1.591503	-0.023288	3.391348
207.222570	3513.868957	1.596507	-0.023305	3.396127
207.653433	3524.836959	1.601512	-0.023389	3.400903
207.858635	3535.897428	1.606517	-0.023430	3.405685
208.371745	3546.852356	1.611521	-0.023529	3.410452
208.905012	3557.899085	1.616526	-0.023632	3.415254
209.544970	3568.887766	1.621531	-0.023755	3.420036
210.160493	3579.943051	1.626536	-0.023873	3.424838
210.644032	3590.956641	1.631540	-0.023967	3.429599
210.859905	3601.968506	1.636545	-0.024010	3.434321
211.194236	3612.988661	1.641550	-0.024075	3.439054
211.609994	3624.016522	1.646555	-0.024156	3.443793
212.134568	3634.991702	1.651559	-0.024257	3.448516
212.312609	3646.077193	1.656564	-0.024293	3.453238
212.417468	3657.043287	1.661569	-0.024316	3.457896
213.129761	3668.044066	1.666573	-0.024452	3.462632
213.283593	3679.094201	1.671578	-0.024484	3.467317
213.580809	3690.107486	1.676583	-0.024542	3.471997
213.960419	3701.114807	1.681588	-0.024616	3.476678
214.236186	3712.139028	1.686592	-0.024671	3.481348
214.816645	3723.141050	1.691597	-0.024782	3.486037
215.249644	3734.154804	1.696602	-0.024866	3.490707
215.477204	3745.175685	1.701606	-0.024912	3.495351
216.012926	3756.193833	1.706611	-0.025015	3.500022
216.390131	3767.211334	1.711616	-0.025088	3.504669
216.894189	3778.219016	1.716621	-0.025186	3.509320
217.231412	3789.244406	1.721625	-0.025252	3.513953
217.701063	3800.251695	1.726630	-0.025343	3.518587
218.160927	3811.288616	1.731635	-0.025432	3.523227
218.513597	3822.310112	1.736640	-0.025500	3.527841
218.662403	3833.308121	1.741644	-0.025531	3.532417
218.967723	3844.336297	1.746649	-0.025591	3.537017
219.381353	3855.312070	1.751654	-0.025671	3.541601
219.625706	3866.382938	1.756658	-0.025720	3.546200
219.824037	3877.360366	1.761663	-0.025760	3.550749
220.241740	3888.381712	1.766668	-0.025841	3.555335
220.889414	3899.384657	1.771673	-0.025965	3.559932
221.249762	3910.429459	1.776677	-0.026036	3.564509
221.690777	3921.417633	1.781682	-0.026121	3.569066
222.035695	3932.472715	1.786687	-0.026189	3.573633
222.337243	3943.463793	1.791692	-0.026248	3.578164
222.738823	3954.478995	1.796696	-0.026326	3.582709
223.152158	3965.500820	1.801701	-0.026406	3.587253
223.406500	3976.518151	1.806706	-0.026457	3.591772
223.771594	3987.532319	1.811710	-0.026528	3.596296
224.103582	3998.564901	1.816715	-0.026593	3.600818
224.222845	4009.560590	1.821720	-0.026618	3.605296
224.780936	4020.569659	1.826725	-0.026726	3.609821
225.205649	4031.588381	1.831729	-0.026808	3.614330
225.502006	4042.602803	1.836734	-0.026866	3.618818
225.832273	4053.629909	1.841739	-0.026931	3.623309
226.137239	4064.680791	1.846744	-0.026991	3.627801
226.545016	4075.620017	1.851748	-0.027070	3.632254
226.926622	4086.680831	1.856753	-0.027145	3.636747
227.408362	4097.688057	1.861758	-0.027238	3.641224
227.733186	4108.761529	1.866762	-0.027301	3.645705
227.953643	4119.756453	1.871767	-0.027345	3.650138
228.149956	4130.786112	1.876772	-0.027385	3.654577
228.616248	4141.788071	1.881777	-0.027475	3.659027
228.880242	4152.848354	1.886781	-0.027528	3.663475
229.146582	4163.816031	1.891786	-0.027580	3.667880
229.490911	4174.864470	1.896791	-0.027648	3.672320
229.708716	4185.840436	1.901795	-0.027691	3.676713
230.043944	4196.890938	1.906800	-0.027757	3.681142
230.382512	4207.892040	1.911805	-0.027823	3.685546
230.833591	4218.907179	1.916810	-0.027910	3.689963
231.142269	4229.893388	1.921814	-0.027971	3.694348
231.493145	4240.934827	1.926819	-0.028040	3.698753
231.828131	4251.951987	1.931824	-0.028105	3.703143
232.170606	4262.996393	1.936829	-0.028172	3.707538
232.463050	4273.972126	1.941833	-0.028230	3.711896
232.896048	4285.007077	1.946838	-0.028314	3.716287
233.331046	4295.993798	1.951843	-0.028398	3.720653
233.741062	4307.047968	1.956847	-0.028478	3.725038
233.896107	4318.026169	1.961852	-0.028510	3.729362
234.077649	4329.088507	1.966857	-0.028546	3.733717
234.566533	4340.040831	1.971862	-0.028641	3.738055
