Wed Nov 23 17:31:11 2022

Number of Points = 2200
Depth (nm)	Load (µN)	Time (s)	Depth (V)	Load (V)
-1.515302	1.171543	0.000000	0.069908	0.843139
0.000000	6.769022	0.005005	0.069623	0.853906
1.254008	15.476493	0.010009	0.069385	0.869689
2.394986	25.932433	0.015014	0.069168	0.888042
3.312090	36.969225	0.020019	0.068994	0.906837
4.255954	48.136749	0.025024	0.068814	0.925474
5.004649	59.369351	0.030028	0.068670	0.943731
5.794906	70.607834	0.035033	0.068519	0.961673
6.290440	81.859563	0.040038	0.068424	0.979141
6.903451	93.055422	0.045043	0.068306	0.996284
7.383101	104.247822	0.050047	0.068213	1.013058
8.052180	115.391421	0.055052	0.068085	1.029590
8.176349	126.658026	0.060057	0.068059	1.045749
8.803214	137.737770	0.065061	0.067938	1.061660
9.240447	148.903047	0.070066	0.067853	1.077357
9.646054	160.057826	0.075071	0.067775	1.092798
9.997087	171.197349	0.080076	0.067706	1.107976
10.535255	182.312776	0.085080	0.067602	1.123008
10.671337	193.515183	0.090085	0.067574	1.137762
11.142552	204.559561	0.095090	0.067483	1.152282
11.306894	215.741485	0.100094	0.067449	1.166652
11.815048	226.787619	0.105099	0.067351	1.180835
12.211235	237.910484	0.110104	0.067274	1.194894
12.638925	249.017313	0.115109	0.067191	1.208784
13.001294	260.136712	0.120113	0.067120	1.222501
13.341863	271.247142	0.125118	0.067054	1.236046
13.601944	282.337869	0.130123	0.067002	1.249386
14.148632	293.399338	0.135128	0.066897	1.262673
34.943802	300.296883	0.140132	0.062993	1.279565
36.809037	314.793658	0.145137	0.062639	1.297014
37.173671	326.619736	0.150142	0.062568	1.310599
38.075454	337.721978	0.155146	0.062396	1.323454
38.549181	348.832623	0.160151	0.062304	1.336021
40.454960	359.692556	0.165156	0.061944	1.348766
41.375784	370.904296	0.170161	0.061769	1.361385
42.194977	382.043615	0.175165	0.061612	1.373770
43.127691	393.090510	0.180170	0.061434	1.385988
44.094312	404.172540	0.185175	0.061250	1.398150
44.861724	415.268218	0.190180	0.061104	1.410144
45.864000	426.281046	0.195184	0.060913	1.422039
46.934180	437.353985	0.200189	0.060709	1.433923
48.179547	448.393498	0.205194	0.060473	1.445738
49.055493	459.512608	0.210198	0.060306	1.457403
50.169857	470.554520	0.215203	0.060094	1.468983
50.962876	481.650157	0.220208	0.059942	1.480410
51.889352	492.715940	0.225213	0.059766	1.491767
52.539126	503.811712	0.230217	0.059641	1.502969
53.525080	514.801223	0.235222	0.059453	1.514102
54.477052	525.872761	0.240227	0.059272	1.525221
55.555877	536.935383	0.245232	0.059067	1.536294
56.300434	548.033601	0.250236	0.058924	1.547207
57.113369	559.068430	0.255241	0.058769	1.558006
57.777144	570.152703	0.260246	0.058642	1.568726
58.814299	581.133139	0.265250	0.058444	1.579402
59.611633	592.229265	0.270255	0.058292	1.590032
60.719779	603.255590	0.275260	0.058081	1.600630
61.430833	614.347222	0.280265	0.057945	1.611088
62.375033	625.398558	0.285269	0.057765	1.621517
63.190757	636.447329	0.290274	0.057610	1.631834
64.138586	647.467093	0.295279	0.057429	1.642103
64.685087	658.591270	0.300283	0.057324	1.652273
65.500521	669.603627	0.305288	0.057168	1.662366
65.852015	680.690062	0.310293	0.057099	1.672318
66.735886	691.673515	0.315298	0.056931	1.682286
67.831413	702.687242	0.320302	0.056722	1.692287
68.706290	713.788650	0.325307	0.056555	1.702237
69.155514	724.870119	0.330312	0.056468	1.711981
70.002072	735.859131	0.335317	0.056307	1.721711
70.965514	746.867654	0.340321	0.056123	1.731438
72.464988	757.860686	0.345326	0.055839	1.741258
73.584720	768.932945	0.350331	0.055626	1.750976
74.347789	780.048686	0.355335	0.055480	1.760571
74.908707	791.122760	0.360340	0.055372	1.770019
75.683487	802.150302	0.365345	0.055224	1.779440
76.263309	813.201917	0.370350	0.055113	1.788774
76.888920	824.226859	0.375354	0.054993	1.798051
77.719261	835.231968	0.380359	0.054834	1.807323
78.441648	846.325487	0.385364	0.054696	1.816588
78.875447	857.353999	0.390369	0.054612	1.825671
79.930260	868.330395	0.395373	0.054411	1.834843
80.682845	879.412441	0.400378	0.054267	1.843968
81.767817	890.406239	0.405383	0.054061	1.853070
82.666262	901.457397	0.410387	0.053890	1.862121
83.440084	912.541819	0.415392	0.053742	1.871120
83.877000	923.591835	0.420397	0.053657	1.879955
84.764027	934.587633	0.425402	0.053488	1.888830
85.350103	945.647475	0.430406	0.053375	1.897631
86.732773	956.580214	0.435411	0.053113	1.906508
87.461563	967.706841	0.440416	0.052973	1.915316
88.285116	978.733429	0.445421	0.052816	1.924033
88.847329	989.810993	0.450425	0.052708	1.932680
89.501191	1000.822827	0.455430	0.052582	1.941261
90.512051	1011.773061	0.460435	0.052390	1.949852
91.630660	1022.848926	0.465439	0.052177	1.958528
92.252472	1033.936226	0.470444	0.052058	1.967045
92.961422	1044.987554	0.475449	0.051922	1.975520
93.381315	1056.034205	0.480454	0.051841	1.983881
94.183635	1066.996182	0.485458	0.051687	1.992241
94.780756	1078.097763	0.490463	0.051573	2.000617
95.184249	1089.141234	0.495468	0.051494	2.008867
95.522842	1100.173028	0.500472	0.051428	2.017057
96.418715	1111.123475	0.505477	0.051257	2.025294
97.016013	1122.209633	0.510482	0.051142	2.033522
97.470669	1133.271933	0.515487	0.051054	2.041664
97.888482	1144.279016	0.520491	0.050973	2.049724
98.690182	1155.277963	0.525496	0.050820	2.057841
99.128874	1166.342030	0.530501	0.050735	2.065884
100.059241	1177.315757	0.535506	0.050558	2.073951
100.534620	1188.415552	0.540510	0.050466	2.081965
101.468325	1199.361423	0.545515	0.050288	2.089950
102.053161	1210.474270	0.550520	0.050175	2.097938
102.607224	1221.483037	0.555524	0.050069	2.105815
103.252704	1232.503383	0.560529	0.049945	2.113693
103.803458	1243.516800	0.565534	0.049839	2.121513
104.908196	1254.505263	0.570539	0.049629	2.129419
105.948276	1265.554333	0.575543	0.049431	2.137321
106.533012	1276.624930	0.580548	0.049318	2.145102
107.143034	1287.643223	0.585553	0.049201	2.152824
107.655809	1298.713973	0.590558	0.049102	2.160533
108.194922	1309.704107	0.595562	0.048998	2.168164
108.810023	1320.734876	0.600567	0.048880	2.175814
109.314447	1331.790457	0.605572	0.048783	2.183428
109.772143	1342.795149	0.610576	0.048694	2.190970
110.182483	1353.870138	0.615581	0.048614	2.198523
110.395000	1364.874361	0.620586	0.048572	2.205958
111.156776	1375.866735	0.625591	0.048426	2.213483
111.831575	1386.891040	0.630595	0.048297	2.220985
112.552267	1397.909650	0.635600	0.048159	2.228467
113.127402	1408.966623	0.640605	0.048048	2.235917
113.487186	1420.015381	0.645610	0.047978	2.243289
114.289650	1430.986736	0.650614	0.047825	2.250684
115.060722	1442.027303	0.655619	0.047677	2.258092
115.775726	1453.042176	0.660624	0.047540	2.265447
116.427424	1464.078294	0.665628	0.047415	2.272778
116.917370	1475.132061	0.670633	0.047321	2.280061
117.660048	1486.116988	0.675638	0.047179	2.287331
118.113161	1497.205981	0.680643	0.047091	2.294582
118.651604	1508.172032	0.685647	0.046987	2.301750
119.011828	1519.241850	0.690652	0.046917	2.308924
119.613060	1530.242437	0.695657	0.046801	2.316082
120.173575	1541.286692	0.700661	0.046693	2.323238
120.836775	1552.275646	0.705666	0.046566	2.330357
121.380942	1563.336370	0.710671	0.046461	2.337476
122.156228	1574.315340	0.715676	0.046313	2.344569
122.805067	1585.371001	0.720680	0.046189	2.351662
123.312758	1596.393754	0.725685	0.046091	2.358684
123.624581	1607.439061	0.730690	0.046029	2.365658
124.363721	1618.426714	0.735695	0.045888	2.372664
124.935150	1629.474545	0.740699	0.045778	2.379652
125.437874	1640.478608	0.745704	0.045681	2.386579
125.950088	1651.540617	0.750709	0.045582	2.393522
126.216987	1662.567588	0.755713	0.045529	2.400374
126.938595	1673.542046	0.760718	0.045391	2.407266
127.550668	1684.621597	0.765723	0.045274	2.414181
128.098017	1695.575850	0.770728	0.045168	2.420986
128.764405	1706.630888	0.775732	0.045040	2.427857
129.616306	1717.629323	0.780737	0.044878	2.434711
130.284015	1728.667844	0.785742	0.044750	2.441533
131.046531	1739.671485	0.790747	0.044604	2.448333
131.678661	1750.741266	0.795751	0.044483	2.455129
131.988271	1761.770009	0.800756	0.044422	2.461817
132.833671	1772.730236	0.805761	0.044260	2.468551
133.463860	1783.792720	0.810765	0.044139	2.475286
134.091586	1794.831479	0.815770	0.044019	2.481988
134.475016	1805.868890	0.820775	0.043944	2.488623
134.951909	1816.865279	0.825780	0.043852	2.495234
135.605289	1827.887759	0.830784	0.043727	2.501877
136.111539	1838.918619	0.835789	0.043629	2.508479
136.941165	1849.894416	0.840794	0.043471	2.515092
137.471834	1860.978960	0.845799	0.043368	2.521695
137.831200	1872.009154	0.850803	0.043298	2.528216
138.176937	1883.024819	0.855808	0.043231	2.534710
138.699781	1894.010816	0.860813	0.043130	2.541202
139.344416	1905.041185	0.865817	0.043006	2.547727
139.822670	1916.089736	0.870822	0.042914	2.554214
140.238590	1927.112765	0.875827	0.042833	2.560658
140.720353	1938.122563	0.880832	0.042740	2.567090
141.105755	1949.182739	0.885836	0.042665	2.573518
141.597671	1960.181729	0.890841	0.042570	2.579913
142.264675	1971.163569	0.895846	0.042442	2.586316
142.787014	1982.216766	0.900850	0.042341	2.592716
143.280326	1993.202392	0.905855	0.042246	2.599056
143.902317	2004.252160	0.910860	0.042126	2.605441
144.477473	2015.253814	0.915865	0.042016	2.611775
145.048381	2026.282938	0.920869	0.041906	2.618107
145.542687	2037.303038	0.925874	0.041810	2.624405
146.124562	2048.314774	0.930879	0.041698	2.630699
146.680809	2059.322839	0.935884	0.041591	2.636971
147.077064	2070.374573	0.940888	0.041514	2.643224
147.507942	2081.370558	0.945893	0.041431	2.649437
148.021930	2092.388908	0.950898	0.041331	2.655663
148.522337	2103.415054	0.955902	0.041235	2.661876
148.880314	2114.454271	0.960907	0.041165	2.668056
149.295474	2125.462381	0.965912	0.041084	2.674215
149.704630	2136.469425	0.970917	0.041005	2.680358
150.481586	2147.463967	0.975921	0.040856	2.686544
151.024016	2158.540988	0.980926	0.040752	2.692719
151.905914	2169.463622	0.985931	0.040584	2.698855
152.604563	2180.538870	0.990936	0.040450	2.705029
153.245207	2191.579566	0.995940	0.040327	2.711159
153.847539	2202.593837	1.000945	0.040211	2.717255
154.497940	2213.588511	1.005950	0.040086	2.723334
155.034474	2224.641025	1.010954	0.039983	2.729411
155.592718	2235.662864	1.015959	0.039875	2.735462
155.953954	2246.685442	1.020964	0.039805	2.741466
156.392086	2257.700341	1.025969	0.039720	2.747466
157.041548	2268.697372	1.030973	0.039595	2.753479
157.496580	2279.751105	1.035978	0.039507	2.759476
157.822983	2290.780321	1.040983	0.039443	2.765425
158.221502	2301.790600	1.045988	0.039366	2.771363
158.681057	2312.804722	1.050992	0.039277	2.777301
159.432423	2323.766464	1.055997	0.039133	2.783247
159.926676	2334.846473	1.061002	0.039038	2.789199
160.448147	2345.867800	1.066006	0.038937	2.795113
160.658520	2356.900542	1.071011	0.038895	2.800968
161.011648	2367.910380	1.076016	0.038826	2.806823
161.545437	2378.935593	1.081021	0.038723	2.812703
162.026295	2389.902645	1.086025	0.038630	2.818531
162.693940	2400.920969	1.091030	0.038502	2.824405
163.443980	2411.981172	1.096035	0.038358	2.830301
163.684183	2423.035128	1.101039	0.038311	2.836099
163.876722	2434.028199	1.106044	0.038272	2.841846
164.438939	2445.023275	1.111049	0.038164	2.847642
165.219781	2456.028135	1.116054	0.038014	2.853466
165.508106	2467.091287	1.121058	0.037958	2.859229
165.971412	2478.100067	1.126063	0.037868	2.864980
166.265127	2489.136473	1.131068	0.037810	2.870707
166.731505	2500.122600	1.136073	0.037720	2.876424
167.151076	2511.166278	1.141077	0.037638	2.882152
167.656885	2522.157647	1.146082	0.037541	2.887855
168.177702	2533.212026	1.151087	0.037440	2.893581
168.574211	2544.208114	1.156091	0.037363	2.899247
168.963967	2555.230095	1.161096	0.037287	2.904913
169.298186	2566.256602	1.166101	0.037222	2.910562
169.896158	2577.245148	1.171106	0.037107	2.916221
170.283020	2588.303011	1.176110	0.037032	2.921872
170.836019	2599.299765	1.181115	0.036925	2.927507
170.853095	2610.357263	1.186120	0.036919	2.933079
171.290254	2621.331919	1.191125	0.036834	2.938663
171.997022	2632.313060	1.196129	0.036699	2.944280
172.589126	2643.385228	1.201134	0.036585	2.949915
173.130599	2654.379616	1.206139	0.036481	2.955493
173.489615	2665.438942	1.211143	0.036411	2.961064
174.013313	2676.418053	1.216148	0.036310	2.966610
174.516694	2687.456540	1.221153	0.036213	2.972172
174.902751	2698.444114	1.226158	0.036137	2.977681
175.462043	2709.498483	1.231162	0.036030	2.983238
175.813695	2720.514243	1.236167	0.035961	2.988734
176.207334	2731.518357	1.241172	0.035884	2.994221
176.773723	2742.544260	1.246177	0.035775	2.999734
177.296150	2753.560478	1.251181	0.035675	3.005226
177.822075	2764.585555	1.256186	0.035573	3.010712
177.776152	2775.649065	1.261191	0.035579	3.016123
177.939994	2786.619440	1.266195	0.035546	3.021509
178.476289	2797.636628	1.271200	0.035442	3.026964
178.954058	2808.639248	1.276205	0.035350	3.032392
179.723409	2819.654366	1.281210	0.035203	3.037859
180.188749	2830.697574	1.286214	0.035113	3.043286
180.449762	2841.732515	1.291219	0.035061	3.048669
180.836036	2852.722647	1.296224	0.034986	3.054039
181.231109	2863.743516	1.301228	0.034909	3.059416
182.047189	2874.720141	1.306233	0.034753	3.064823
182.582352	2885.787835	1.311238	0.034650	3.070223
182.921140	2896.789635	1.316243	0.034584	3.075554
183.293279	2907.843344	1.321247	0.034511	3.080905
183.712760	2918.807906	1.326252	0.034430	3.086210
184.171411	2929.857353	1.331257	0.034341	3.091553
184.743191	2940.846308	1.336262	0.034231	3.096874
185.187997	2951.886526	1.341266	0.034145	3.102191
185.494075	2962.922166	1.346271	0.034085	3.107478
185.777566	2973.924992	1.351276	0.034029	3.112737
186.365807	2984.939764	1.356280	0.033916	3.118036
186.817252	2995.952845	1.361285	0.033828	3.123305
187.321351	3006.959541	1.366290	0.033731	3.128569
187.670367	3018.022420	1.371295	0.033663	3.133830
188.138710	3029.006004	1.376299	0.033572	3.139061
188.480571	3040.023669	1.381304	0.033505	3.144282
188.744031	3051.056397	1.386309	0.033453	3.149490
189.245832	3062.060369	1.391314	0.033356	3.154708
189.810600	3073.082678	1.396318	0.033247	3.159936
190.096101	3084.118614	1.401323	0.033191	3.165122
190.484940	3095.115855	1.406328	0.033115	3.170296
191.025864	3106.102434	1.411332	0.033011	3.175478
191.692493	3117.122624	1.416337	0.032883	3.180683
192.153458	3128.171724	1.421342	0.032794	3.185865
192.312673	3139.201024	1.426347	0.032762	3.190989
192.454437	3150.225570	1.431351	0.032732	3.196100
193.220980	3161.181547	1.436356	0.032586	3.201255
193.600175	3172.256435	1.441361	0.032512	3.206404
194.006863	3183.242286	1.446366	0.032433	3.211508
194.273202	3194.299717	1.451370	0.032380	3.216618
194.442746	3205.292606	1.456375	0.032345	3.221677
194.766676	3216.314910	1.461380	0.032282	3.226762
195.147383	3227.308403	1.466384	0.032208	3.231834
195.642499	3238.344713	1.471389	0.032112	3.236932
195.821668	3249.373541	1.476394	0.032076	3.241977
196.147888	3260.373857	1.481399	0.032012	3.247020
196.607271	3271.380752	1.486403	0.031923	3.252076
197.114917	3282.407892	1.491408	0.031825	3.257139
197.705196	3293.415122	1.496413	0.031712	3.262196
198.152812	3304.454073	1.501417	0.031625	3.267241
198.557179	3315.455077	1.506422	0.031546	3.272255
199.139945	3326.472136	1.511427	0.031434	3.277292
199.572742	3337.481623	1.516432	0.031350	3.282298
199.940566	3348.545055	1.521436	0.031278	3.287312
200.234564	3359.515140	1.526441	0.031221	3.292267
200.677920	3370.541037	1.531446	0.031135	3.297259
200.947475	3381.554709	1.536451	0.031081	3.302216
201.261011	3392.602764	1.541455	0.031020	3.307186
201.724114	3403.578156	1.546460	0.030930	3.312135
202.205132	3414.620105	1.551465	0.030837	3.317108
202.597067	3425.615820	1.556469	0.030761	3.322042
202.975418	3436.670873	1.561474	0.030687	3.326993
203.266741	3447.658128	1.566479	0.030630	3.331896
203.511203	3458.695630	1.571484	0.030581	3.336808
203.875450	3469.692364	1.576488	0.030510	3.341709
204.340554	3480.707535	1.581493	0.030420	3.346624
204.445043	3491.737691	1.586498	0.030398	3.351494
204.886523	3502.757765	1.591503	0.030312	3.356393
205.288385	3513.736521	1.596507	0.030234	3.361263
205.728433	3524.817049	1.601512	0.030149	3.366174
205.989439	3535.777592	1.606517	0.030097	3.371004
206.563720	3546.801814	1.611521	0.029987	3.375893
206.887573	3557.823462	1.616526	0.029923	3.380743
207.411727	3568.840877	1.621531	0.029822	3.385609
207.710266	3579.856793	1.626536	0.029763	3.390439
208.268462	3590.884994	1.631540	0.029656	3.395299
208.571079	3601.884424	1.636545	0.029596	3.400109
208.994268	3612.934514	1.641550	0.029514	3.404949
209.161238	3623.937991	1.646555	0.029480	3.409730
209.500369	3634.956044	1.651559	0.029414	3.414532
209.707074	3645.950814	1.656564	0.029372	3.419300
210.355183	3656.978904	1.661569	0.029248	3.424130
210.635446	3668.004240	1.666573	0.029193	3.428907
210.949550	3678.995828	1.671578	0.029131	3.433667
211.610028	3690.008038	1.676583	0.029004	3.438471
212.339763	3701.029475	1.681588	0.028865	3.443280
212.783078	3712.057276	1.686592	0.028779	3.448050
213.321564	3723.049578	1.691597	0.028675	3.452810
213.618732	3734.109627	1.696602	0.028616	3.457564
213.970200	3745.096862	1.701606	0.028548	3.462287
214.201523	3756.132578	1.706611	0.028502	3.467010
214.557376	3767.146301	1.711616	0.028432	3.471731
214.640103	3778.168087	1.716621	0.028414	3.476417
215.086925	3789.168832	1.721625	0.028327	3.481131
215.457413	3800.193331	1.726630	0.028255	3.485839
215.897342	3811.196285	1.731635	0.028170	3.490540
216.277018	3822.212499	1.736640	0.028096	3.495233
216.696066	3833.239023	1.741644	0.028014	3.499929
216.969825	3844.258152	1.746649	0.027960	3.504598
217.490422	3855.262673	1.751654	0.027860	3.509283
217.669711	3866.298177	1.756658	0.027824	3.513936
218.116752	3877.320158	1.761663	0.027737	3.518607
218.383075	3888.310181	1.766668	0.027684	3.523238
218.837636	3899.355586	1.771673	0.027596	3.527908
219.118001	3910.343698	1.776677	0.027541	3.532528
219.439392	3921.378766	1.781682	0.027478	3.537165
219.677396	3932.385224	1.786687	0.027430	3.541776
220.069924	3943.404171	1.791692	0.027354	3.546402
220.187424	3954.405538	1.796696	0.027329	3.550985
220.713043	3965.435849	1.801701	0.027228	3.555619
221.038016	3976.425907	1.806706	0.027164	3.560208
221.510072	3987.472293	1.811710	0.027073	3.564831
221.875246	3998.455666	1.816715	0.027002	3.569410
222.227521	4009.491777	1.821720	0.026933	3.574003
222.542969	4020.509110	1.826725	0.026871	3.578578
222.764319	4031.557018	1.831729	0.026827	3.583150
223.131188	4042.536084	1.836734	0.026755	3.587703
223.714918	4053.551163	1.841739	0.026643	3.592289
223.907201	4064.570691	1.846744	0.026604	3.596828
224.199100	4075.614270	1.851748	0.026547	3.601382
224.399107	4086.611875	1.856753	0.026506	3.605902
224.656148	4097.662529	1.861758	0.026455	3.610443
224.893761	4108.678909	1.866762	0.026408	3.614963
225.364407	4119.681681	1.871767	0.026317	3.619497
225.513298	4130.732143	1.876772	0.026286	3.624009
226.092145	4141.714436	1.881777	0.026175	3.628535
226.571056	4152.757530	1.886781	0.026082	3.633069
227.112355	4163.745889	1.891786	0.025978	3.637581
227.592267	4174.779317	1.896791	0.025885	3.642100
228.060534	4185.791336	1.901795	0.025795	3.646603
228.315507	4196.803425	1.906800	0.025744	3.651077
228.755710	4207.835289	1.911805	0.025659	3.655574
229.001756	4218.834681	1.916810	0.025610	3.660031
229.601170	4229.843799	1.921814	0.025495	3.664524
229.786759	4240.882699	1.926819	0.025457	3.668980
229.998404	4251.907314	1.931824	0.025415	3.673427
230.352938	4262.905579	1.936829	0.025345	3.677874
230.571187	4273.939212	1.941833	0.025302	3.682314
231.013200	4284.919072	1.946838	0.025216	3.686752
231.346601	4295.955089	1.951843	0.025151	3.691195
231.645373	4306.962082	1.956847	0.025092	3.695617
232.057363	4317.978010	1.961852	0.025012	3.700049
232.510676	4328.984945	1.966857	0.024924	3.704477
232.836773	4340.019779	1.971862	0.024860	3.708897
233.125249	4351.027513	1.976866	0.024803	3.713297
233.618738	4362.055846	1.981871	0.024708	3.717721
233.800989	4373.073000	1.986876	0.024671	3.722104
234.030691	4384.095711	1.991881	0.024625	3.726488
234.364559	4395.072953	1.996885	0.024560	3.730860
234.688226	4406.117455	2.001890	0.024497	3.735252
234.871686	4417.114866	2.006895	0.024459	3.739606
