Wed Nov 23 18:09:14 2022

Number of Points = 2200
Depth (nm)	Load (µN)	Time (s)	Depth (V)	Load (V)
-9.675313	1.042864	0.000000	0.008374	1.034480
0.000000	5.895256	0.005005	0.006557	1.046390
6.836033	15.597665	0.010009	0.005272	1.063427
10.360670	27.090737	0.015014	0.004608	1.080964
12.547373	38.598005	0.020019	0.004194	1.097576
14.094163	49.952658	0.025024	0.003901	1.113427
15.321917	61.204069	0.030028	0.003668	1.128766
16.162428	72.458941	0.035033	0.003508	1.143720
16.956558	83.577035	0.040038	0.003356	1.158286
17.490857	94.772413	0.045043	0.003253	1.172647
18.134163	105.853689	0.050047	0.003129	1.186743
18.787848	116.982629	0.055052	0.003004	1.200736
19.260181	128.099874	0.060057	0.002913	1.214472
20.825313	138.926966	0.065061	0.002616	1.228186
23.120300	149.935749	0.070066	0.002183	1.242278
25.250126	161.017761	0.075071	0.001781	1.256225
29.536881	171.645124	0.080076	0.000974	1.270402
31.218605	183.316253	0.085080	0.000655	1.284527
32.270543	194.540577	0.090085	0.000455	1.297732
33.377510	205.686716	0.095090	0.000244	1.310738
34.449644	216.736973	0.100094	0.000041	1.323495
36.052850	227.712900	0.105099	-0.000263	1.336260
37.999123	238.701130	0.110104	-0.000631	1.349052
39.381480	249.908071	0.115109	-0.000893	1.361738
40.561458	261.021557	0.120113	-0.001117	1.374128
41.790774	272.111416	0.125118	-0.001351	1.386400
43.018436	283.162434	0.130123	-0.001584	1.398522
44.169976	294.268015	0.135128	-0.001803	1.410568
45.215548	305.342173	0.140132	-0.002001	1.422438
46.240803	316.424042	0.145137	-0.002197	1.434211
47.464390	327.449382	0.150142	-0.002429	1.445902
48.718406	338.527658	0.155146	-0.002667	1.457563
49.655278	349.640188	0.160151	-0.002846	1.469051
50.842285	360.630468	0.165156	-0.003071	1.480417
52.041595	371.729611	0.170161	-0.003299	1.491807
52.912580	382.837033	0.175165	-0.003465	1.503003
54.144808	393.830727	0.180170	-0.003699	1.514132
55.079265	404.960911	0.185175	-0.003877	1.525207
56.171740	415.972815	0.190180	-0.004085	1.536142
57.094689	427.066540	0.195184	-0.004261	1.547020
58.144725	438.102151	0.200189	-0.004460	1.557810
59.048546	449.169239	0.205194	-0.004633	1.568505
60.196956	460.189913	0.210198	-0.004851	1.579165
61.084535	471.281581	0.215203	-0.005020	1.589733
62.269868	482.292377	0.220208	-0.005245	1.600254
63.284522	493.371621	0.225213	-0.005439	1.610712
64.141027	504.476292	0.230217	-0.005602	1.621075
65.245215	515.450371	0.235222	-0.005812	1.631333
66.221129	526.505760	0.240227	-0.005998	1.641558
67.094146	537.593287	0.245232	-0.006164	1.651715
67.913808	548.645247	0.250236	-0.006321	1.661762
68.743307	559.667483	0.255241	-0.006479	1.671725
69.939875	570.701596	0.260246	-0.006706	1.681752
70.626112	581.793338	0.265250	-0.006838	1.691613
72.028377	592.728889	0.270255	-0.007104	1.701500
72.908804	603.882221	0.275260	-0.007272	1.711357
73.552998	614.936196	0.280265	-0.007395	1.721002
74.457690	625.929561	0.285269	-0.007568	1.730619
75.530287	636.978366	0.290274	-0.007772	1.740280
76.726424	647.981765	0.295279	-0.007999	1.749885
77.580741	659.092582	0.300283	-0.008162	1.759426
78.508067	670.093256	0.305288	-0.008339	1.768845
79.361667	681.195261	0.310293	-0.008502	1.778276
80.148084	692.208900	0.315298	-0.008652	1.787565
80.765004	703.294290	0.320302	-0.008771	1.796816
81.561785	714.289953	0.325307	-0.008923	1.805997
82.522826	725.295249	0.330312	-0.009106	1.815186
83.274200	736.384338	0.335317	-0.009250	1.824337
84.099230	747.418935	0.340321	-0.009407	1.833418
84.745467	758.456673	0.345326	-0.009531	1.842407
85.717120	769.475801	0.350331	-0.009716	1.851428
86.588798	780.513997	0.355335	-0.009882	1.860391
87.312095	791.570106	0.360340	-0.010021	1.869285
87.865489	802.632436	0.365345	-0.010127	1.878095
89.138720	813.563441	0.370350	-0.010369	1.886956
89.899125	824.693655	0.375354	-0.010514	1.895792
90.848387	835.659040	0.380359	-0.010695	1.904510
91.709470	846.737369	0.385364	-0.010860	1.913250
92.302759	857.814960	0.390369	-0.010974	1.921879
93.097936	868.816746	0.395373	-0.011126	1.930465
93.786104	879.861138	0.400378	-0.011258	1.939017
94.588481	890.868997	0.405383	-0.011411	1.947533
95.528833	901.900924	0.410387	-0.011590	1.956065
95.962983	912.987968	0.415392	-0.011674	1.964471
96.592820	924.002530	0.420397	-0.011795	1.972837
97.394226	935.012744	0.425402	-0.011948	1.981208
98.069287	946.060337	0.430406	-0.012078	1.989538
99.054666	957.052383	0.435411	-0.012265	1.997872
99.742909	968.143375	0.440416	-0.012397	2.006168
100.378799	979.151298	0.445421	-0.012519	2.014356
101.012423	990.202224	0.450425	-0.012641	2.022541
101.689247	1001.208926	0.455430	-0.012770	2.030671
102.645995	1012.217630	0.460435	-0.012953	2.038840
103.351948	1023.293847	0.465439	-0.013088	2.046962
104.072502	1034.338266	0.470444	-0.013226	2.055033
104.543487	1045.359817	0.475449	-0.013317	2.062994
105.268489	1056.382368	0.480454	-0.013456	2.070988
105.961377	1067.410974	0.485458	-0.013588	2.078946
106.723866	1078.458995	0.490463	-0.013734	2.086905
107.096279	1089.507688	0.495468	-0.013807	2.094740
107.914495	1100.470538	0.500472	-0.013963	2.102592
108.823102	1111.513703	0.505477	-0.014136	2.110492
109.392593	1122.577263	0.510482	-0.014246	2.118296
109.942157	1133.591892	0.515487	-0.014352	2.126033
110.960771	1144.600660	0.520491	-0.014546	2.133847
111.706235	1155.607280	0.525496	-0.014688	2.141567
112.617999	1166.662031	0.530501	-0.014862	2.149330
113.221712	1177.712991	0.535506	-0.014978	2.156992
113.729829	1188.772615	0.540510	-0.015076	2.164610
114.139298	1199.793749	0.545515	-0.015156	2.172152
114.746031	1210.812599	0.550520	-0.015272	2.179712
115.162954	1221.833767	0.555524	-0.015353	2.187204
115.659735	1232.879635	0.560529	-0.015449	2.194705
116.194362	1243.870035	0.565534	-0.015552	2.202152
117.016186	1254.896731	0.570539	-0.015709	2.209661
117.576745	1265.942596	0.575543	-0.015817	2.217099
118.257794	1276.944337	0.580548	-0.015948	2.224510
118.871042	1287.990321	0.585553	-0.016065	2.231910
119.508111	1299.011176	0.590558	-0.016188	2.239275
120.226540	1310.021071	0.595562	-0.016325	2.246625
120.899025	1321.085090	0.600567	-0.016454	2.253976
121.236286	1332.120811	0.605572	-0.016520	2.261213
121.915127	1343.106987	0.610576	-0.016650	2.268467
122.443747	1354.143066	0.615581	-0.016752	2.275699
122.952203	1365.192446	0.620586	-0.016850	2.282911
123.477091	1376.195289	0.625591	-0.016952	2.290074
124.210192	1387.198082	0.630595	-0.017092	2.297259
124.784006	1398.245631	0.635600	-0.017202	2.304416
125.478226	1409.264772	0.640605	-0.017335	2.311558
125.986329	1420.299974	0.645610	-0.017433	2.318648
126.678896	1431.305796	0.650614	-0.017566	2.325737
127.292030	1442.364731	0.655619	-0.017684	2.332821
127.894773	1453.367982	0.660624	-0.017800	2.339846
128.588961	1464.376979	0.665628	-0.017933	2.346873
129.027976	1475.451625	0.670633	-0.018018	2.353867
129.604072	1486.421002	0.675638	-0.018129	2.360802
130.141339	1497.489361	0.680643	-0.018232	2.367770
130.626137	1508.514373	0.685647	-0.018326	2.374681
130.887054	1519.542831	0.690652	-0.018377	2.381527
131.159819	1530.566455	0.695657	-0.018431	2.388354
131.832517	1541.557988	0.700661	-0.018560	2.395222
132.351000	1552.597784	0.705666	-0.018660	2.402068
132.630225	1563.647138	0.710671	-0.018715	2.408853
133.227287	1574.650976	0.715676	-0.018830	2.415654
133.440023	1585.685081	0.720680	-0.018873	2.422378
134.060917	1596.680032	0.725685	-0.018992	2.429140
134.659399	1607.696256	0.730690	-0.019107	2.435892
135.150966	1618.723499	0.735695	-0.019202	2.442611
135.784314	1629.756886	0.740699	-0.019324	2.449342
136.165633	1640.798179	0.745704	-0.019398	2.456010
136.639885	1651.786963	0.750709	-0.019490	2.462647
137.105814	1662.836708	0.755713	-0.019580	2.469301
137.413699	1673.887182	0.760718	-0.019640	2.475906
137.765112	1684.882018	0.765723	-0.019709	2.482469
138.223757	1695.911114	0.770728	-0.019798	2.489056
138.541362	1706.914069	0.775732	-0.019860	2.495583
139.284793	1717.939484	0.780737	-0.020002	2.502186
139.821080	1728.953223	0.785742	-0.020106	2.508726
140.408320	1739.977818	0.790747	-0.020219	2.515265
140.820891	1751.007349	0.795751	-0.020299	2.521757
141.372915	1762.034243	0.800756	-0.020405	2.528256
141.895588	1773.041435	0.805761	-0.020506	2.534722
142.461763	1784.071553	0.810765	-0.020615	2.541192
142.987253	1795.091037	0.815770	-0.020716	2.547632
143.342450	1806.158128	0.820775	-0.020786	2.554051
143.526103	1817.137713	0.825780	-0.020823	2.560373
144.136896	1828.163154	0.830784	-0.020940	2.566784
144.521970	1839.206225	0.835789	-0.021015	2.573147
145.034141	1850.241830	0.840794	-0.021114	2.579513
145.695219	1861.203579	0.845799	-0.021241	2.585849
146.036373	1872.283585	0.850803	-0.021307	2.592177
146.492139	1883.253864	0.855808	-0.021396	2.598449
146.690071	1894.326889	0.860813	-0.021436	2.604718
147.254970	1905.279966	0.865817	-0.021544	2.610969
147.719535	1916.349050	0.870822	-0.021634	2.617253
148.052233	1927.356311	0.875827	-0.021699	2.623463
148.456203	1938.392318	0.880832	-0.021778	2.629687
148.705094	1949.403293	0.885836	-0.021827	2.635855
149.238912	1960.406548	0.890841	-0.021930	2.642055
149.724904	1971.431820	0.895846	-0.022024	2.648243
150.220340	1982.482512	0.900850	-0.022120	2.654433
150.627933	1993.451976	0.905855	-0.022199	2.660548
151.113741	2004.509396	0.910860	-0.022293	2.666711
151.463444	2015.533606	0.915865	-0.022361	2.672818
151.922750	2026.539633	0.920869	-0.022450	2.678919
152.241969	2037.556723	0.925874	-0.022513	2.684989
152.810381	2048.575453	0.930879	-0.022622	2.691088
153.077226	2059.594421	0.935884	-0.022675	2.697122
153.417973	2070.598947	0.940888	-0.022742	2.703147
153.828956	2081.600543	0.945893	-0.022821	2.709169
154.385653	2092.651879	0.950898	-0.022929	2.715229
154.574215	2103.654173	0.955902	-0.022967	2.721187
155.143137	2114.690889	0.960907	-0.023076	2.727214
155.538504	2125.695960	0.965912	-0.023153	2.733182
156.203211	2136.685428	0.970917	-0.023281	2.739174
156.420430	2147.750593	0.975921	-0.023324	2.745117
156.739547	2158.785206	0.980926	-0.023387	2.751049
157.127473	2169.765465	0.985931	-0.023462	2.756950
157.625005	2180.812644	0.990936	-0.023558	2.762892
158.014287	2191.799375	0.995940	-0.023634	2.768771
158.632588	2202.818918	1.000945	-0.023753	2.774693
158.981764	2213.858964	1.005950	-0.023821	2.780569
159.805801	2224.833636	1.010954	-0.023978	2.786475
160.194111	2235.906956	1.015959	-0.024054	2.792350
160.732428	2246.898924	1.020964	-0.024158	2.798194
161.083200	2257.941132	1.025969	-0.024226	2.804021
161.500423	2268.961538	1.030973	-0.024307	2.809835
161.627674	2280.010572	1.035978	-0.024334	2.815606
162.148910	2290.983782	1.040983	-0.024434	2.821388
162.596816	2301.990186	1.045988	-0.024521	2.827164
163.276287	2313.030181	1.050992	-0.024651	2.832983
163.577771	2324.030706	1.055997	-0.024711	2.838708
164.178722	2335.066897	1.061002	-0.024826	2.844488
164.558410	2346.103946	1.066006	-0.024900	2.850222
164.923197	2357.104306	1.071011	-0.024971	2.855923
165.156697	2368.144934	1.076016	-0.025018	2.861612
165.566799	2379.144303	1.081021	-0.025098	2.867297
165.909100	2390.173352	1.086025	-0.025165	2.872974
166.384340	2401.161080	1.091030	-0.025256	2.878640
166.982183	2412.198624	1.096035	-0.025371	2.884340
167.407868	2423.239355	1.101039	-0.025454	2.890002
167.860663	2434.244526	1.106044	-0.025542	2.895640
168.206724	2445.290723	1.111049	-0.025609	2.901271
168.525385	2456.257404	1.116054	-0.025672	2.906846
169.122157	2467.288568	1.121058	-0.025787	2.912486
169.413526	2478.310497	1.126063	-0.025844	2.918064
169.700205	2489.359653	1.131068	-0.025900	2.923643
170.093189	2500.358506	1.136073	-0.025977	2.929203
170.551401	2511.355736	1.141077	-0.026066	2.934762
170.794525	2522.412760	1.146082	-0.026114	2.940307
171.164716	2533.396414	1.151087	-0.026186	2.945824
171.835994	2544.409216	1.156091	-0.026315	2.951391
172.357099	2555.432962	1.161096	-0.026415	2.956929
172.752694	2566.452151	1.166101	-0.026492	2.962436
173.335361	2577.485090	1.171106	-0.026604	2.967968
173.860828	2588.472827	1.176110	-0.026706	2.973458
174.229501	2599.542808	1.181115	-0.026778	2.978956
174.739291	2610.511485	1.186120	-0.026876	2.984414
175.316221	2621.557774	1.191125	-0.026987	2.989910
175.465581	2632.597859	1.196129	-0.027018	2.995330
175.738234	2643.608213	1.201134	-0.027072	3.000743
175.883505	2654.625091	1.206139	-0.027102	3.006131
176.428700	2665.606062	1.211143	-0.027207	3.011551
176.771148	2676.632202	1.216148	-0.027274	3.016953
177.172587	2687.674996	1.221153	-0.027352	3.022362
177.409797	2698.692228	1.226158	-0.027399	3.027725
177.652439	2709.699805	1.231162	-0.027447	3.033074
178.227524	2720.706177	1.236167	-0.027558	3.038462
178.562358	2731.749251	1.241172	-0.027623	3.043822
179.067313	2742.747101	1.246177	-0.027721	3.049176
179.586353	2753.759338	1.251181	-0.027821	3.054530
179.865530	2764.800201	1.256186	-0.027876	3.059853
180.191924	2775.806653	1.261191	-0.027940	3.065157
180.590118	2786.826918	1.266195	-0.028017	3.070469
181.115226	2797.840838	1.271200	-0.028119	3.075786
181.389471	2808.865954	1.276205	-0.028173	3.081064
181.610188	2819.890569	1.281210	-0.028217	3.086326
181.949880	2830.897038	1.286214	-0.028284	3.091586
182.279613	2841.914992	1.291219	-0.028348	3.096841
182.716159	2852.910529	1.296224	-0.028433	3.102092
183.408543	2863.927235	1.301228	-0.028565	3.107379
183.740295	2874.971491	1.306233	-0.028630	3.112620
184.104804	2885.975828	1.311238	-0.028702	3.117838
184.532936	2896.994262	1.316243	-0.028785	3.123062
185.046778	2908.025097	1.321247	-0.028884	3.128295
185.394654	2919.035430	1.326252	-0.028952	3.133487
185.727067	2930.051518	1.331257	-0.029017	3.138671
186.021106	2941.078635	1.336262	-0.029075	3.143846
186.272156	2952.108600	1.341266	-0.029125	3.149008
186.274472	2963.122008	1.346271	-0.029128	3.154120
186.769883	2974.112297	1.351276	-0.029223	3.159279
187.253784	2985.136595	1.356280	-0.029317	3.164445
187.682225	2996.147568	1.361285	-0.029400	3.169588
187.998493	3007.174339	1.366290	-0.029462	3.174715
188.490862	3018.174092	1.371295	-0.029557	3.179845
189.032030	3029.192883	1.376299	-0.029662	3.184981
189.589996	3040.238086	1.381304	-0.029769	3.190124
189.660289	3051.246192	1.386309	-0.029785	3.195176
189.939680	3062.292432	1.391314	-0.029840	3.200266
190.059644	3073.298068	1.396318	-0.029865	3.205307
190.408707	3084.295261	1.401323	-0.029933	3.210368
190.701168	3095.297024	1.406328	-0.029991	3.215414
190.970952	3106.334614	1.411332	-0.030044	3.220466
191.507394	3117.309396	1.416337	-0.030148	3.225517
191.834692	3128.379487	1.421342	-0.030212	3.230575
192.039757	3139.386445	1.426347	-0.030253	3.235581
192.485605	3150.385631	1.431351	-0.030340	3.240607
192.802503	3161.407555	1.436356	-0.030402	3.245618
193.179737	3172.451714	1.441361	-0.030475	3.250639
193.264106	3183.441701	1.446366	-0.030494	3.255591
193.685739	3194.449960	1.451370	-0.030576	3.260586
194.073105	3205.479769	1.456375	-0.030651	3.265580
194.549740	3216.494329	1.461380	-0.030743	3.270569
194.897420	3227.515503	1.466384	-0.030811	3.275538
195.034698	3238.541010	1.471389	-0.030840	3.280474
195.182733	3249.580896	1.476394	-0.030870	3.285411
195.677293	3260.545807	1.481399	-0.030966	3.290350
196.087997	3271.571968	1.486403	-0.031046	3.295299
196.599205	3282.579486	1.491408	-0.031144	3.300245
197.097263	3293.592947	1.496413	-0.031240	3.305184
197.555898	3304.634571	1.501417	-0.031329	3.310123
197.855695	3315.652547	1.506422	-0.031388	3.315024
198.146601	3326.670509	1.511427	-0.031445	3.319917
198.593409	3337.671544	1.516432	-0.031532	3.324814
199.044787	3348.696483	1.521436	-0.031619	3.329715
199.235089	3359.720005	1.526441	-0.031658	3.334576
199.655515	3370.736942	1.531446	-0.031739	3.339456
199.991573	3381.738491	1.536451	-0.031805	3.344311
200.367084	3392.768849	1.541455	-0.031878	3.349176
200.641038	3403.788325	1.546460	-0.031933	3.354017
201.027101	3414.781012	1.551465	-0.032008	3.358853
201.370278	3425.816326	1.556469	-0.032075	3.363695
201.575720	3436.832421	1.561474	-0.032116	3.368505
201.943117	3447.834936	1.566479	-0.032188	3.373322
202.343339	3458.845072	1.571484	-0.032266	3.378140
202.635503	3469.875522	1.576488	-0.032323	3.382946
203.301850	3480.882537	1.581493	-0.032451	3.387780
203.521295	3491.925576	1.586498	-0.032495	3.392569
204.011145	3502.903981	1.591503	-0.032589	3.397355
204.277788	3513.967036	1.596507	-0.032642	3.402145
204.471796	3524.970113	1.601512	-0.032681	3.406893
204.694286	3535.971342	1.606517	-0.032726	3.411637
204.939311	3546.995706	1.611521	-0.032775	3.416387
205.207245	3558.006649	1.616526	-0.032828	3.421128
205.560303	3569.030023	1.621531	-0.032897	3.425877
205.889328	3580.033194	1.626536	-0.032961	3.430608
206.050544	3591.072589	1.631540	-0.032994	3.435328
206.341171	3602.084967	1.636545	-0.033051	3.440045
206.485361	3613.093558	1.641550	-0.033081	3.444738
206.765811	3624.125411	1.646555	-0.033136	3.449449
207.167997	3635.104425	1.651559	-0.033215	3.454146
207.533252	3646.134776	1.656564	-0.033286	3.458853
207.890622	3657.151603	1.661569	-0.033356	3.463548
208.203798	3668.166960	1.666573	-0.033417	3.468230
208.553773	3679.182218	1.671578	-0.033485	3.472910
208.867898	3690.207633	1.676583	-0.033547	3.477584
209.183315	3701.198740	1.681588	-0.033609	3.482238
209.550927	3712.245686	1.686592	-0.033681	3.486914
209.856999	3723.236621	1.691597	-0.033741	3.491554
210.217767	3734.258904	1.696602	-0.033811	3.496207
210.904504	3745.259719	1.701606	-0.033943	3.500881
211.331682	3756.301618	1.706611	-0.034026	3.505537
211.667094	3767.301083	1.711616	-0.034091	3.510158
211.690173	3778.379938	1.716621	-0.034099	3.514772
211.874050	3789.338029	1.721625	-0.034136	3.519347
212.086188	3800.381919	1.726630	-0.034178	3.523954
212.655026	3811.374011	1.731635	-0.034288	3.528575
212.810616	3822.412085	1.736640	-0.034320	3.533161
213.211317	3833.384051	1.741644	-0.034398	3.537742
213.318453	3844.437755	1.746649	-0.034420	3.542318
213.332978	3855.439159	1.751654	-0.034426	3.546856
214.129543	3866.418461	1.756658	-0.034578	3.551466
214.689780	3877.476366	1.761663	-0.034686	3.556076
215.007406	3888.488103	1.766668	-0.034748	3.560634
215.474222	3899.497026	1.771673	-0.034839	3.565202
215.701048	3910.532260	1.776677	-0.034884	3.569748
216.235658	3921.506164	1.781682	-0.034987	3.574297
216.560817	3932.542960	1.786687	-0.035051	3.578842
217.062034	3943.566144	1.791692	-0.035147	3.583396
217.368216	3954.601488	1.796696	-0.035208	3.587927
217.477235	3965.606979	1.801701	-0.035231	3.592419
217.693272	3976.632396	1.806706	-0.035274	3.596925
217.986562	3987.607413	1.811710	-0.035332	3.601413
218.495495	3998.634547	1.816715	-0.035430	3.605940
218.830593	4009.655088	1.821720	-0.035496	3.610440
219.014096	4020.688988	1.826725	-0.035533	3.614923
219.006093	4031.700930	1.831729	-0.035534	3.619371
219.379293	4042.709059	1.836734	-0.035607	3.623853
219.782079	4053.707048	1.841739	-0.035685	3.628328
220.125432	4064.756418	1.846744	-0.035752	3.632813
220.226326	4075.772641	1.851748	-0.035774	3.637252
220.544470	4086.746678	1.856753	-0.035836	3.641692
220.958779	4097.818114	1.861758	-0.035917	3.646176
221.143614	4108.837592	1.866762	-0.035954	3.650609
221.358961	4119.864172	1.871767	-0.035997	3.655043
221.752031	4130.876430	1.876772	-0.036074	3.659484
221.948174	4141.906323	1.881777	-0.036113	3.663907
222.151285	4152.915761	1.886781	-0.036154	3.668316
222.378449	4163.931546	1.891786	-0.036200	3.672726
222.676483	4174.955598	1.896791	-0.036258	3.677140
223.127417	4185.942216	1.901795	-0.036346	3.681550
223.557676	4196.974579	1.906800	-0.036429	3.685971
223.763285	4207.992383	1.911805	-0.036470	3.690357
223.897696	4219.013594	1.916810	-0.036498	3.694733
225.445332	4229.847259	1.921814	-0.036791	3.699174
227.873023	4241.000151	1.926819	-0.037250	3.703825
228.409225	4252.029271	1.931824	-0.037353	3.708228
228.814979	4263.062940	1.936829	-0.037432	3.712614
231.266830	4273.904441	1.941833	-0.037895	3.717128
232.868930	4285.083656	1.946838	-0.038198	3.721681
233.437466	4296.097419	1.951843	-0.038307	3.726060
233.780283	4307.119884	1.956847	-0.038374	3.730413
234.171600	4318.130258	1.961852	-0.038451	3.734762
234.404278	4329.163477	1.966857	-0.038497	3.739098
