Wed Nov 23 17:12:02 2022

Number of Points = 2200
Depth (nm)	Load (µN)	Time (s)	Depth (V)	Load (V)
0.000000	2.154300	0.000000	0.069677	0.845666
1.232106	7.186092	0.005005	0.069445	0.855238
2.900578	15.546843	0.010009	0.069130	0.870669
4.872153	25.778713	0.015014	0.068757	0.889143
6.854768	36.707252	0.020019	0.068383	0.908384
8.728551	47.877904	0.025024	0.068028	0.927546
10.697918	59.073763	0.030028	0.067656	0.946413
12.407025	70.350208	0.035033	0.067332	0.964886
13.882216	81.640315	0.040038	0.067053	0.982899
15.154503	92.907061	0.045043	0.066811	1.000441
16.466406	104.078144	0.050047	0.066562	1.017561
17.936784	115.232203	0.055052	0.066284	1.034457
19.157616	126.445167	0.060057	0.066052	1.051033
20.691545	137.550139	0.065061	0.065761	1.067361
22.001936	148.744180	0.070066	0.065513	1.083451
23.120427	159.948485	0.075071	0.065300	1.099223
24.461107	171.022367	0.080076	0.065046	1.114706
25.674681	182.219252	0.085080	0.064815	1.130076
28.495737	192.909093	0.090085	0.064283	1.145347
31.684790	204.028531	0.095090	0.063682	1.161137
32.943982	215.486347	0.100094	0.063443	1.176246
34.615737	226.599771	0.105099	0.063127	1.190922
35.845680	237.803133	0.110104	0.062893	1.205330
37.633052	248.793629	0.115109	0.062555	1.219556
38.999062	259.999148	0.120113	0.062296	1.233690
40.432194	271.108364	0.125118	0.062024	1.247577
41.877182	282.157462	0.130123	0.061750	1.261245
43.351140	293.278846	0.135128	0.061471	1.274862
44.680127	304.407612	0.140132	0.061219	1.288282
46.663608	315.428359	0.145137	0.060844	1.301711
47.683328	326.638178	0.150142	0.060650	1.314819
49.673401	337.529796	0.155146	0.060274	1.327836
50.895528	348.785420	0.160151	0.060042	1.340819
52.109031	359.858259	0.165156	0.059811	1.353473
53.193694	370.968355	0.170161	0.059605	1.365999
54.478235	382.031018	0.175165	0.059361	1.378438
55.423571	393.127450	0.180170	0.059181	1.390669
56.800055	404.158090	0.185175	0.058920	1.402889
58.018043	415.240334	0.190180	0.058689	1.414996
59.195777	426.330332	0.195184	0.058465	1.426992
60.333016	437.413917	0.200189	0.058249	1.438867
61.086116	448.538591	0.205194	0.058105	1.450543
62.127165	459.563433	0.210198	0.057907	1.462131
63.297283	470.593281	0.215203	0.057684	1.473678
64.323519	481.692262	0.220208	0.057489	1.485152
65.577322	492.702932	0.225213	0.057251	1.496531
66.690710	503.794905	0.230217	0.057039	1.507853
67.743906	514.873852	0.235222	0.056839	1.519057
68.309226	526.000022	0.240227	0.056730	1.530055
69.292796	537.023590	0.245232	0.056543	1.541019
70.432538	548.002923	0.250236	0.056326	1.551917
71.806707	559.034111	0.255241	0.056066	1.562866
72.510904	570.220538	0.260246	0.055931	1.573659
73.536017	581.224438	0.265250	0.055736	1.584315
74.285468	592.297994	0.270255	0.055592	1.594873
75.345269	603.316026	0.275260	0.055391	1.605411
76.638344	614.334201	0.280265	0.055145	1.615957
77.238898	625.494434	0.285269	0.055030	1.626338
78.252608	636.471935	0.290274	0.054837	1.636621
79.167741	647.543539	0.295279	0.054663	1.646892
79.930413	658.605865	0.300283	0.054517	1.657042
81.049117	669.610032	0.305288	0.054304	1.667191
81.832726	680.684669	0.310293	0.054154	1.677234
83.076896	691.686143	0.315298	0.053918	1.687297
83.614668	702.845776	0.320302	0.053815	1.697220
84.444258	713.828072	0.325307	0.053656	1.707020
85.663692	724.819186	0.330312	0.053425	1.716890
86.656644	735.904828	0.335317	0.053236	1.726715
87.470564	746.961232	0.340321	0.053080	1.736406
88.617327	757.959329	0.345326	0.052862	1.746093
89.371911	769.062564	0.350331	0.052718	1.755697
90.374352	780.088920	0.355335	0.052527	1.765258
90.916809	791.184342	0.360340	0.052422	1.774690
91.792778	802.167343	0.365345	0.052255	1.784075
92.486562	813.246060	0.370350	0.052122	1.793437
93.192018	824.285397	0.375354	0.051987	1.802721
93.970692	835.298250	0.380359	0.051839	1.811957
94.997072	846.307359	0.385364	0.051643	1.821212
95.900877	857.374665	0.390369	0.051471	1.830433
96.635799	868.425714	0.395373	0.051330	1.839547
97.315977	879.491429	0.400378	0.051200	1.848612
98.059603	890.526809	0.405383	0.051058	1.857625
98.706525	901.537249	0.410387	0.050933	1.866549
99.634695	912.560593	0.415392	0.050757	1.875517
100.308343	923.630532	0.420397	0.050627	1.884409
101.009695	934.666935	0.425402	0.050493	1.893240
101.714129	945.693170	0.430406	0.050358	1.902023
102.491208	956.712829	0.435411	0.050210	1.910779
103.379268	967.752920	0.440416	0.050040	1.919541
104.079388	978.817469	0.445421	0.049906	1.928231
104.606018	989.869160	0.450425	0.049805	1.936826
105.142568	1000.890459	0.455430	0.049701	1.945363
105.823049	1011.904491	0.460435	0.049571	1.953894
106.704339	1022.913360	0.465439	0.049403	1.962436
107.421347	1033.984790	0.470444	0.049265	1.970945
108.254818	1045.002047	0.475449	0.049106	1.979407
108.982652	1056.045712	0.480454	0.048967	1.987825
109.574241	1067.103791	0.485458	0.048853	1.996183
110.220770	1078.116876	0.490463	0.048729	2.004487
111.203742	1089.121482	0.495468	0.048542	2.012835
111.725848	1100.213288	0.500472	0.048441	2.021096
112.283857	1111.225860	0.505477	0.048334	2.029275
112.906304	1122.245733	0.510482	0.048214	2.037441
113.504952	1133.313208	0.515487	0.048099	2.045604
114.216290	1144.288776	0.520491	0.047963	2.053695
115.083635	1155.325269	0.525496	0.047798	2.061836
115.776374	1166.367861	0.530501	0.047665	2.069907
116.295371	1177.432503	0.535506	0.047565	2.077919
116.956500	1188.433921	0.540510	0.047438	2.085890
117.810541	1199.445557	0.545515	0.047275	2.093884
118.564656	1210.471981	0.550520	0.047131	2.101834
119.212495	1221.536614	0.555524	0.047007	2.109755
119.917108	1232.544663	0.560529	0.046872	2.117620
120.517020	1243.600083	0.565534	0.046756	2.125463
120.893299	1254.620093	0.570539	0.046683	2.133201
121.911392	1265.605436	0.575543	0.046489	2.141037
122.479522	1276.670841	0.580548	0.046380	2.148794
123.106252	1287.715045	0.585553	0.046260	2.156521
123.521823	1298.746550	0.590558	0.046179	2.164164
124.012281	1309.786266	0.595562	0.046084	2.171802
124.988929	1320.736227	0.600567	0.045898	2.179464
125.865508	1331.788734	0.605572	0.045731	2.187145
126.480209	1342.847031	0.610576	0.045613	2.194744
127.116911	1353.860556	0.615581	0.045491	2.202291
127.504920	1364.935001	0.620586	0.045415	2.209796
128.302743	1375.896591	0.625591	0.045263	2.217293
128.937245	1386.962007	0.630595	0.045141	2.224796
129.588566	1397.968501	0.635600	0.045016	2.232239
130.262558	1408.993889	0.640605	0.044887	2.239675
130.836246	1420.043764	0.645610	0.044776	2.247079
131.469757	1431.071469	0.650614	0.044655	2.254458
131.999983	1442.098371	0.655619	0.044552	2.261789
132.637280	1453.093968	0.660624	0.044430	2.269099
133.424304	1464.122177	0.665628	0.044280	2.276439
133.854454	1475.178034	0.670633	0.044196	2.283696
134.570501	1486.190005	0.675638	0.044059	2.290963
135.085720	1497.201488	0.680643	0.043960	2.298163
135.890184	1508.213524	0.685647	0.043806	2.305403
136.558440	1519.271223	0.690652	0.043678	2.312620
137.173479	1530.289876	0.695657	0.043560	2.319779
137.611154	1541.336436	0.700661	0.043475	2.326895
138.277009	1552.341934	0.705666	0.043347	2.334011
138.750737	1563.372435	0.710671	0.043256	2.341082
139.402592	1574.388118	0.715676	0.043131	2.348158
139.863807	1585.425623	0.720680	0.043041	2.355187
140.628177	1596.422386	0.725685	0.042895	2.362232
141.021367	1607.491418	0.730690	0.042819	2.369225
141.754921	1618.475452	0.735695	0.042678	2.376214
142.241272	1629.535116	0.740699	0.042584	2.383178
142.844645	1640.529152	0.745704	0.042468	2.390105
143.319371	1651.571860	0.750709	0.042377	2.397016
143.866741	1662.608506	0.755713	0.042271	2.403918
144.458959	1673.603843	0.760718	0.042157	2.410784
145.107517	1684.635902	0.765723	0.042033	2.417663
145.588198	1695.657932	0.770728	0.041940	2.424484
146.236293	1706.666265	0.775732	0.041816	2.431309
146.507540	1717.747199	0.780737	0.041762	2.438085
146.956077	1728.737946	0.785742	0.041675	2.444823
147.607733	1739.747313	0.790747	0.041550	2.451593
148.328808	1750.751343	0.795751	0.041412	2.458354
149.162510	1761.769988	0.800756	0.041253	2.465128
149.774996	1772.832364	0.805761	0.041135	2.471866
150.142523	1783.864581	0.810765	0.041064	2.478519
150.679331	1794.867843	0.815770	0.040960	2.485171
151.325516	1805.885754	0.820775	0.040836	2.491834
151.923653	1816.926507	0.825780	0.040721	2.498483
152.478860	1827.915651	0.830784	0.040614	2.505076
153.234233	1838.953138	0.835789	0.040470	2.511718
153.836559	1849.972402	0.840794	0.040354	2.518303
154.366466	1861.003500	0.845799	0.040252	2.524863
154.947417	1872.026901	0.850803	0.040140	2.531411
155.418810	1883.073575	0.855808	0.040049	2.537935
155.577029	1894.108656	0.860813	0.040017	2.544377
156.338072	1905.066039	0.865817	0.039871	2.550870
156.855289	1916.119821	0.870822	0.039771	2.557356
157.457421	1927.147350	0.875827	0.039656	2.563827
158.010678	1938.156030	0.880832	0.039549	2.570261
158.369361	1949.271014	0.885836	0.039479	2.576704
158.909532	1960.197778	0.890841	0.039375	2.583057
159.425052	1971.227194	0.895846	0.039275	2.589448
159.840352	1982.257493	0.900850	0.039195	2.595805
160.296260	1993.277335	0.905855	0.039107	2.602148
160.785579	2004.284193	0.910860	0.039012	2.608474
161.521707	2015.288289	0.915865	0.038871	2.614828
161.895967	2026.340122	0.920869	0.038798	2.621128
162.723840	2037.323683	0.925874	0.038640	2.627455
163.213636	2048.372716	0.930879	0.038545	2.633744
163.893538	2059.352664	0.935884	0.038415	2.640012
164.477087	2070.386727	0.940888	0.038303	2.646279
164.960254	2081.435410	0.945893	0.038210	2.652521
165.257982	2092.445554	0.950898	0.038151	2.658693
165.859703	2103.449777	0.955902	0.038035	2.664902
166.116567	2114.506484	0.960907	0.037984	2.671065
166.595236	2125.496538	0.965912	0.037892	2.677215
167.253928	2136.512125	0.970917	0.037766	2.683397
167.918632	2147.513394	0.975921	0.037638	2.689557
168.451762	2158.565333	0.980926	0.037535	2.695708
168.903177	2169.591927	0.985931	0.037448	2.701817
169.399391	2180.593817	0.990936	0.037352	2.707906
170.014529	2191.606510	0.995940	0.037234	2.714007
170.548505	2202.638183	1.000945	0.037131	2.720092
171.227091	2213.658872	1.005950	0.037001	2.726181
171.615111	2224.705884	1.010954	0.036925	2.732221
172.101862	2235.698109	1.015959	0.036831	2.738235
172.385553	2246.736607	1.020964	0.036775	2.744226
173.040847	2257.736938	1.025969	0.036650	2.750246
173.663151	2268.727084	1.030973	0.036530	2.756242
174.271948	2279.806960	1.035978	0.036413	2.762270
174.523013	2290.805477	1.040983	0.036363	2.768182
174.928103	2301.839463	1.045988	0.036285	2.774126
175.322047	2312.839358	1.050992	0.036208	2.780037
175.918299	2323.861233	1.055997	0.036093	2.785980
176.378550	2334.890198	1.061002	0.036004	2.791892
177.059389	2345.868386	1.066006	0.035874	2.797800
177.761064	2356.906843	1.071011	0.035739	2.803732
178.324784	2367.945927	1.076016	0.035631	2.809628
178.816411	2378.956865	1.081021	0.035536	2.815485
179.492437	2389.977605	1.086025	0.035406	2.821365
179.726290	2401.016505	1.091030	0.035360	2.827170
180.347846	2412.021644	1.096035	0.035240	2.833009
180.613105	2423.030339	1.101039	0.035188	2.838780
181.337913	2434.053070	1.106044	0.035049	2.844620
181.754806	2445.087244	1.111049	0.034968	2.850404
182.199846	2456.088500	1.116054	0.034882	2.856164
182.708240	2467.129878	1.121058	0.034784	2.861943
183.019513	2478.149425	1.126063	0.034723	2.867668
183.409923	2489.148125	1.131068	0.034647	2.873383
184.437258	2500.122913	1.136073	0.034451	2.879175
185.007537	2511.195730	1.141077	0.034341	2.884933
185.714413	2522.203488	1.146082	0.034206	2.890668
185.946407	2533.271915	1.151087	0.034160	2.896348
186.546147	2544.231091	1.156091	0.034045	2.902019
187.045736	2555.267109	1.161096	0.033948	2.907701
187.608093	2566.274640	1.166101	0.033840	2.913368
188.133229	2577.296505	1.171106	0.033739	2.919025
188.628854	2588.341344	1.176110	0.033643	2.924678
188.828457	2599.369552	1.181115	0.033603	2.930266
189.260424	2610.358088	1.186120	0.033519	2.935859
189.564348	2621.400891	1.191125	0.033459	2.941449
190.231636	2632.384327	1.196129	0.033331	2.947054
190.407141	2643.440975	1.201134	0.033296	2.952610
190.833380	2654.426156	1.206139	0.033213	2.958158
191.373241	2665.439968	1.211143	0.033109	2.963726
192.061943	2676.489030	1.216148	0.032977	2.969325
192.420042	2687.504437	1.221153	0.032907	2.974845
192.824836	2698.527207	1.226158	0.032828	2.980367
193.044584	2709.518171	1.231162	0.032784	2.985834
193.745152	2720.557665	1.236167	0.032650	2.991387
194.082081	2731.559564	1.241172	0.032584	2.996857
194.577614	2742.586202	1.246177	0.032488	3.002353
194.989908	2753.618588	1.251181	0.032408	3.007829
195.380246	2764.622668	1.256186	0.032332	3.013278
195.609103	2775.654797	1.261191	0.032287	3.018707
196.109907	2786.646423	1.266195	0.032190	3.024146
196.722455	2797.671656	1.271200	0.032072	3.029608
197.261243	2808.681140	1.276205	0.031969	3.035041
197.660078	2819.737457	1.281210	0.031891	3.040467
198.001231	2830.739689	1.286214	0.031824	3.045849
198.494858	2841.762002	1.291219	0.031729	3.051253
199.045192	2852.720160	1.296224	0.031623	3.056624
199.694799	2863.784586	1.301228	0.031498	3.062052
200.072934	2874.796451	1.306233	0.031425	3.067405
200.388617	2885.832922	1.311238	0.031363	3.072752
200.741165	2896.848665	1.316243	0.031294	3.078085
201.196967	2907.850571	1.321247	0.031206	3.083416
202.040526	2918.847021	1.326252	0.031045	3.088790
202.286219	2929.906770	1.331257	0.030996	3.094101
202.625839	2940.918558	1.336262	0.030929	3.099393
202.819102	2951.934409	1.341266	0.030890	3.104657
203.297207	2962.957920	1.346271	0.030798	3.109955
203.670339	2973.958589	1.351276	0.030725	3.115219
204.133497	2984.971485	1.356280	0.030635	3.120493
204.543051	2996.011393	1.361285	0.030556	3.125762
205.129349	3007.021561	1.366290	0.030443	3.131034
205.357579	3018.036226	1.371295	0.030398	3.136248
205.799866	3029.045702	1.376299	0.030312	3.141481
206.300732	3040.068774	1.381304	0.030215	3.146720
206.804293	3051.069249	1.386309	0.030118	3.151940
206.984318	3062.127972	1.391314	0.030081	3.157134
207.373556	3073.118308	1.396318	0.030006	3.162316
207.778240	3084.155422	1.401323	0.029927	3.167513
208.215707	3095.143052	1.406328	0.029842	3.172683
208.716382	3106.153464	1.411332	0.029745	3.177863
209.185450	3117.208453	1.416337	0.029655	3.183052
209.477848	3128.208635	1.421342	0.029597	3.188183
209.869791	3139.247863	1.426347	0.029521	3.193336
210.163824	3150.240386	1.431351	0.029463	3.198447
210.700841	3161.252684	1.436356	0.029359	3.203591
211.148194	3172.293680	1.441361	0.029273	3.208728
211.514762	3183.293947	1.446366	0.029201	3.213827
211.775172	3194.312871	1.451370	0.029150	3.218913
212.362817	3205.306536	1.456375	0.029037	3.224022
212.887791	3216.343232	1.461380	0.028935	3.229134
213.232703	3227.363065	1.466384	0.028868	3.234207
213.555460	3238.397353	1.471389	0.028805	3.239275
214.053650	3249.390363	1.476394	0.028709	3.244340
214.204587	3260.437218	1.481399	0.028677	3.249375
214.709651	3271.411736	1.486403	0.028580	3.254416
215.179325	3282.451248	1.491408	0.028489	3.259474
215.536483	3293.460546	1.496413	0.028419	3.264496
215.833525	3304.497507	1.501417	0.028361	3.269514
216.127938	3315.497697	1.506422	0.028303	3.274508
216.504845	3326.523971	1.511427	0.028229	3.279517
216.969227	3337.525037	1.516432	0.028140	3.284518
217.352297	3348.560337	1.521436	0.028065	3.289516
217.883953	3359.546607	1.526441	0.027963	3.294503
218.194348	3370.591588	1.531446	0.027902	3.299481
218.518877	3381.592837	1.536451	0.027838	3.304433
218.954941	3392.628894	1.541455	0.027753	3.309408
219.530987	3403.605632	1.546460	0.027643	3.314366
220.042731	3414.650017	1.551465	0.027544	3.319339
220.412375	3425.673699	1.556469	0.027472	3.324277
220.706977	3436.708650	1.561474	0.027414	3.329203
221.144657	3447.682232	1.566479	0.027329	3.334113
221.587647	3458.709818	1.571484	0.027243	3.339040
222.086857	3469.716970	1.576488	0.027147	3.343957
222.467932	3480.766420	1.581493	0.027072	3.348871
222.786419	3491.756383	1.586498	0.027010	3.353744
223.158245	3502.801662	1.591503	0.026937	3.358641
223.805841	3513.764311	1.596507	0.026813	3.363528
224.434448	3524.824527	1.601512	0.026692	3.368448
224.853078	3535.823406	1.606517	0.026611	3.373309
225.182760	3546.859979	1.611521	0.026547	3.378167
225.612151	3557.840338	1.616526	0.026463	3.383007
225.820202	3568.919017	1.621531	0.026422	3.387855
226.381954	3579.862913	1.626536	0.026313	3.392681
226.713324	3590.950764	1.631540	0.026249	3.397534
227.155647	3601.912045	1.636545	0.026163	3.402339
227.151000	3612.991736	1.641550	0.026161	3.407134
227.376991	3623.950387	1.646555	0.026116	3.411897
227.867241	3634.980466	1.651559	0.026021	3.416717
228.602090	3645.968620	1.656564	0.025880	3.421541
228.915314	3657.046019	1.661569	0.025819	3.426346
229.312668	3668.012664	1.666573	0.025742	3.431107
229.592229	3679.058202	1.671578	0.025687	3.435881
230.127807	3690.057834	1.676583	0.025583	3.440659
230.563450	3701.087092	1.681588	0.025499	3.445431
231.052136	3712.081557	1.686592	0.025404	3.450188
231.499084	3723.114183	1.691597	0.025318	3.454949
231.606416	3734.137522	1.696602	0.025295	3.459660
231.920578	3745.164422	1.701606	0.025233	3.464390
232.482097	3756.147321	1.706611	0.025125	3.469124
232.750393	3767.169096	1.711616	0.025072	3.473833
233.345591	3778.191327	1.716621	0.024958	3.478575
233.623060	3789.226439	1.721625	0.024903	3.483278
234.036636	3800.232710	1.726630	0.024823	3.487979
234.264730	3811.252543	1.731635	0.024777	3.492657
234.623767	3822.257421	1.736640	0.024707	3.497338
234.913330	3833.268196	1.741644	0.024650	3.502007
235.331846	3844.284687	1.746649	0.024569	3.506686
235.501317	3855.323298	1.751654	0.024534	3.511341
235.723492	3866.327318	1.756658	0.024490	3.515980
236.155744	3877.355963	1.761663	0.024406	3.520648
236.701989	3888.348441	1.766668	0.024301	3.525307
236.834870	3899.406321	1.771673	0.024273	3.529941
237.005753	3910.399622	1.776677	0.024238	3.534545
237.468002	3921.382327	1.781682	0.024149	3.539172
237.742313	3932.426290	1.786687	0.024095	3.543798
238.007273	3943.454383	1.791692	0.024042	3.548409
238.358728	3954.461616	1.796696	0.023973	3.553016
238.526002	3965.481226	1.801701	0.023939	3.557601
238.750164	3976.476443	1.806706	0.023894	3.562176
239.307273	3987.491431	1.811710	0.023787	3.566791
239.772924	3998.486051	1.816715	0.023697	3.571381
240.111385	4009.539333	1.821720	0.023631	3.575975
240.536319	4020.537600	1.826725	0.023548	3.580550
241.002187	4031.575039	1.831729	0.023458	3.585139
241.312591	4042.553888	1.836734	0.023397	3.589682
241.549580	4053.619928	1.841739	0.023350	3.594246
242.060089	4064.585827	1.846744	0.023252	3.598794
242.501491	4075.644877	1.851748	0.023166	3.603366
242.777810	4086.664610	1.856753	0.023111	3.607898
243.146955	4097.672143	1.861758	0.023039	3.612430
243.641677	4108.701746	1.866762	0.022944	3.616978
244.073781	4119.734730	1.871767	0.022860	3.621515
244.653230	4130.743507	1.876772	0.022749	3.626053
244.825384	4141.787895	1.881777	0.022714	3.630555
245.106787	4152.767064	1.886781	0.022658	3.635037
245.525994	4163.801403	1.891786	0.022577	3.639551
245.863694	4174.810393	1.896791	0.022511	3.644039
246.441343	4185.823893	1.901795	0.022399	3.648550
246.793191	4196.848517	1.906800	0.022331	3.653035
247.046488	4207.878922	1.911805	0.022280	3.657507
247.366474	4218.855782	1.916810	0.022218	3.661959
247.909732	4229.886150	1.921814	0.022113	3.666450
248.441821	4240.889895	1.926819	0.022010	3.670924
248.738460	4251.956206	1.931824	0.021952	3.675392
249.023100	4262.915376	1.936829	0.021896	3.679811
249.162769	4273.981461	1.941833	0.021867	3.684252
249.763116	4284.943405	1.946838	0.021752	3.688695
249.967925	4295.986644	1.951843	0.021710	3.693123
250.566427	4306.987382	1.956847	0.021595	3.697569
250.974910	4318.031919	1.961852	0.021516	3.702008
251.421843	4329.026610	1.966857	0.021429	3.706426
251.484546	4340.063391	1.971862	0.021415	3.710815
251.850979	4351.038140	1.976866	0.021344	3.715206
252.327726	4362.096068	1.981871	0.021251	3.719635
252.643437	4373.081546	1.986876	0.021189	3.724015
252.879634	4384.126954	1.991881	0.021142	3.728404
253.273999	4395.113716	1.996885	0.021066	3.732782
253.624414	4406.150456	2.001890	0.020997	3.737169
