Wed Nov 23 18:28:15 2022

Number of Points = 2200
Depth (nm)	Load (µN)	Time (s)	Depth (V)	Load (V)
-1.749917	1.055985	0.000000	0.006228	1.040479
0.000000	7.626711	0.005005	0.005898	1.050625
2.264139	16.801576	0.010009	0.005471	1.064538
4.259416	27.519843	0.015014	0.005094	1.080237
6.185430	38.590085	0.020019	0.004730	1.096147
8.207245	49.715645	0.025024	0.004347	1.111947
9.912696	60.900808	0.030028	0.004025	1.127451
11.767240	72.013275	0.035033	0.003674	1.142719
13.593154	83.167498	0.040038	0.003328	1.157825
15.241690	94.281713	0.045043	0.003016	1.172603
16.885412	105.453095	0.050047	0.002705	1.187264
18.518141	116.548006	0.055052	0.002396	1.201647
20.364840	127.642972	0.060057	0.002047	1.215954
21.794040	138.801420	0.065061	0.001776	1.229986
23.335403	149.902529	0.070066	0.001484	1.243839
25.080871	160.961211	0.075071	0.001154	1.257576
26.953962	172.028387	0.080076	0.000799	1.271228
28.450246	183.183361	0.085080	0.000516	1.284676
30.452371	194.222625	0.090085	0.000138	1.298061
31.859004	205.416912	0.095090	-0.000129	1.311240
33.623427	216.446185	0.100094	-0.000463	1.324247
35.070334	227.560478	0.105099	-0.000737	1.337094
36.534017	238.649839	0.110104	-0.001015	1.349796
38.151083	249.682620	0.115109	-0.001321	1.362379
39.576024	260.839488	0.120113	-0.001591	1.374903
41.112048	271.862019	0.125118	-0.001882	1.387214
42.512405	282.977994	0.130123	-0.002147	1.399462
43.737742	294.054084	0.135128	-0.002380	1.411496
45.117137	305.143723	0.140132	-0.002642	1.423498
46.584249	316.172878	0.145137	-0.002920	1.435370
47.984347	327.278161	0.150142	-0.003185	1.447197
49.314075	338.330708	0.155146	-0.003437	1.458848
50.385430	349.446240	0.160151	-0.003641	1.470375
51.491377	360.520561	0.165156	-0.003851	1.481784
52.823760	371.541465	0.170161	-0.004104	1.493133
53.943393	382.606416	0.175165	-0.004317	1.504364
54.968627	393.728843	0.180170	-0.004512	1.515534
56.248547	404.705037	0.185175	-0.004755	1.526568
57.533683	415.814433	0.190180	-0.004999	1.537652
58.507523	426.875717	0.195184	-0.005184	1.548505
59.493022	437.951952	0.200189	-0.005372	1.559299
60.619957	448.975239	0.205194	-0.005586	1.570016
61.810687	460.035324	0.210198	-0.005812	1.580716
63.138029	471.043912	0.215203	-0.006064	1.591340
64.265269	482.137532	0.220208	-0.006278	1.601906
65.528082	493.185973	0.225213	-0.006518	1.612404
66.820003	504.223425	0.230217	-0.006763	1.622834
67.781152	515.305125	0.235222	-0.006946	1.633130
69.000988	526.358725	0.240227	-0.007178	1.643418
69.816185	537.401146	0.245232	-0.007334	1.653504
70.904707	548.457751	0.250236	-0.007541	1.663627
71.962958	559.483567	0.255241	-0.007742	1.673652
73.250248	570.512001	0.260246	-0.007986	1.683689
74.285819	581.592517	0.265250	-0.008183	1.693634
75.196503	592.671786	0.270255	-0.008357	1.703481
76.047500	603.700789	0.275260	-0.008519	1.713210
77.044036	614.753845	0.280265	-0.008709	1.722948
78.010176	625.764491	0.285269	-0.008893	1.732586
79.099576	636.835968	0.290274	-0.009100	1.742258
79.900033	647.857622	0.295279	-0.009253	1.751749
80.959551	658.918153	0.300283	-0.009455	1.761296
81.814288	669.964634	0.305288	-0.009618	1.770721
82.593077	681.025177	0.310293	-0.009767	1.780084
83.579166	692.030851	0.315298	-0.009954	1.789413
84.676250	703.061696	0.320302	-0.010163	1.798746
85.216334	714.172996	0.325307	-0.010267	1.807936
86.125812	725.169048	0.330312	-0.010440	1.817092
87.054183	736.193039	0.335317	-0.010617	1.826228
87.942733	747.251311	0.340321	-0.010787	1.835335
88.612269	758.319142	0.345326	-0.010915	1.844344
89.537388	769.312398	0.350331	-0.011092	1.853320
90.582501	780.328380	0.355335	-0.011290	1.862303
91.837367	791.365114	0.360340	-0.011529	1.871316
92.552753	802.459594	0.365345	-0.011666	1.880184
93.155601	813.511558	0.370350	-0.011781	1.888946
93.849474	824.522755	0.375354	-0.011914	1.897661
94.812152	835.533728	0.380359	-0.012098	1.906407
95.729887	846.579809	0.385364	-0.012273	1.915127
96.599817	857.627907	0.390369	-0.012439	1.923797
97.288422	868.671106	0.395373	-0.012571	1.932376
98.182590	879.662702	0.400378	-0.012741	1.940931
98.886671	890.749782	0.405383	-0.012876	1.949471
99.889416	901.712854	0.410387	-0.013067	1.957958
100.580346	912.816007	0.415392	-0.013199	1.966432
101.497169	923.819693	0.420397	-0.013374	1.974853
102.200784	934.875092	0.425402	-0.013509	1.983222
102.929405	945.903472	0.430406	-0.013648	1.991542
103.746670	956.912770	0.435411	-0.013804	1.999836
104.574842	967.970419	0.440416	-0.013962	2.008133
105.108248	979.019677	0.445421	-0.014065	2.016315
106.167126	989.988746	0.450425	-0.014267	2.024537
106.789706	1001.075074	0.455430	-0.014386	2.032702
107.667099	1012.067481	0.460435	-0.014554	2.040829
108.403353	1023.128514	0.465439	-0.014694	2.048938
109.209163	1034.154726	0.470444	-0.014848	2.057007
109.943114	1045.202907	0.475449	-0.014989	2.065043
110.796677	1056.207438	0.480454	-0.015152	2.073045
111.581382	1067.240440	0.485458	-0.015302	2.081019
112.655026	1078.273658	0.490463	-0.015506	2.089031
113.637882	1089.247582	0.495468	-0.015693	2.096950
114.678060	1100.340408	0.500472	-0.015891	2.104935
115.560630	1111.339917	0.505477	-0.016059	2.112787
116.399314	1122.410044	0.510482	-0.016219	2.120649
117.100421	1133.415855	0.515487	-0.016354	2.128404
117.913989	1144.493669	0.520491	-0.016509	2.136207
118.468051	1155.483186	0.525496	-0.016616	2.143860
119.499444	1166.486236	0.530501	-0.016812	2.151606
120.238140	1177.563232	0.535506	-0.016953	2.159306
120.783387	1188.578973	0.540510	-0.017058	2.166893
121.752510	1199.591804	0.545515	-0.017243	2.174547
122.490470	1210.655384	0.550520	-0.017384	2.182156
122.941419	1221.675432	0.555524	-0.017471	2.189645
123.987709	1232.662969	0.560529	-0.017671	2.197220
124.788944	1243.688977	0.565534	-0.017824	2.204739
125.406230	1254.768114	0.570539	-0.017942	2.212226
126.152537	1265.790692	0.575543	-0.018085	2.219680
126.958693	1276.771951	0.580548	-0.018239	2.227094
127.521623	1287.847627	0.585553	-0.018347	2.234491
128.346092	1298.819981	0.590558	-0.018505	2.241854
128.765296	1309.935457	0.595562	-0.018586	2.249197
129.434768	1320.929156	0.600567	-0.018714	2.256492
130.013288	1331.947302	0.605572	-0.018826	2.263758
130.762054	1342.933303	0.610576	-0.018969	2.271018
131.571125	1353.980975	0.615581	-0.019123	2.278306
132.133496	1365.046639	0.620586	-0.019232	2.285530
132.743553	1376.029002	0.625591	-0.019349	2.292688
133.494105	1387.094990	0.630595	-0.019493	2.299906
134.044129	1398.041472	0.635600	-0.019598	2.306983
134.635698	1409.179320	0.640605	-0.019712	2.314168
135.634218	1420.073792	0.645610	-0.019902	2.321262
136.347195	1431.171967	0.650614	-0.020039	2.328403
137.010646	1442.186143	0.655619	-0.020166	2.335459
137.780706	1453.220589	0.660624	-0.020313	2.342528
138.428881	1464.227794	0.665628	-0.020438	2.349534
139.044939	1475.276752	0.670633	-0.020556	2.356538
139.593416	1486.292724	0.675638	-0.020662	2.363486
140.367322	1497.322608	0.680643	-0.020810	2.370469
140.981030	1508.321013	0.685647	-0.020927	2.377378
141.518681	1519.394232	0.690652	-0.021031	2.384299
142.198709	1530.371997	0.695657	-0.021161	2.391169
142.993624	1541.424331	0.700661	-0.021313	2.398087
143.611056	1552.427698	0.705666	-0.021432	2.404921
144.464892	1563.456595	0.710671	-0.021595	2.411797
144.978881	1574.494489	0.715676	-0.021694	2.418592
145.659539	1585.472050	0.720680	-0.021824	2.425363
146.466124	1596.521993	0.725685	-0.021978	2.432184
147.091699	1607.564646	0.730690	-0.022099	2.438946
148.023118	1618.520062	0.735695	-0.022276	2.445697
148.678887	1629.632805	0.740699	-0.022402	2.452469
149.143156	1640.621387	0.745704	-0.022492	2.459110
149.926755	1651.645018	0.750709	-0.022641	2.465817
150.337659	1662.696633	0.755713	-0.022721	2.472449
151.018890	1673.683351	0.760718	-0.022852	2.479078
151.912472	1684.686233	0.765723	-0.023022	2.485738
152.669259	1695.735718	0.770728	-0.023167	2.492382
153.509058	1706.724345	0.775732	-0.023327	2.498988
154.723764	1717.723122	0.780737	-0.023558	2.505653
155.552185	1728.804013	0.785742	-0.023716	2.512275
156.166275	1739.852365	0.790747	-0.023834	2.518820
156.608663	1750.843733	0.795751	-0.023920	2.525283
157.374753	1761.886638	0.800756	-0.024066	2.531820
157.851266	1772.904681	0.805761	-0.024158	2.538271
158.704890	1783.898346	0.810765	-0.024321	2.544761
159.094551	1794.961840	0.815770	-0.024397	2.551189
159.823445	1805.971199	0.820775	-0.024537	2.557632
160.388388	1816.969434	0.825780	-0.024645	2.564022
161.104425	1827.999105	0.830784	-0.024782	2.570442
161.624654	1839.114791	0.835789	-0.024883	2.576859
162.212306	1850.063417	0.840794	-0.024996	2.583177
162.885567	1861.051963	0.845799	-0.025125	2.589518
163.625798	1872.098679	0.850803	-0.025266	2.595887
164.101018	1883.101886	0.855808	-0.025358	2.602169
164.919729	1894.132880	0.860813	-0.025515	2.608513
165.342906	1905.163508	0.865817	-0.025597	2.614770
165.993201	1916.189411	0.870822	-0.025722	2.621050
166.559005	1927.185532	0.875827	-0.025831	2.627283
167.042775	1938.250137	0.880832	-0.025924	2.633525
167.776871	1949.207844	0.885836	-0.026064	2.639736
168.482270	1960.270912	0.890841	-0.026200	2.645987
168.894509	1971.315392	0.895846	-0.026280	2.652160
169.700558	1982.288841	0.900850	-0.026434	2.658349
170.098092	1993.336166	0.905855	-0.026511	2.664492
170.954188	2004.327349	0.910860	-0.026674	2.670670
171.393774	2015.383415	0.915865	-0.026760	2.676797
171.941284	2026.403181	0.920869	-0.026865	2.682909
172.484801	2037.385226	0.925874	-0.026970	2.688985
173.014043	2048.437585	0.930879	-0.027072	2.695083
173.786450	2059.412394	0.935884	-0.027219	2.701167
174.378114	2070.443385	0.940888	-0.027333	2.707237
174.666263	2081.491908	0.945893	-0.027390	2.713250
175.323047	2092.485817	0.950898	-0.027516	2.719284
175.970582	2103.485217	0.955902	-0.027640	2.725305
176.688205	2114.554194	0.960907	-0.027778	2.731361
177.203620	2125.555603	0.965912	-0.027877	2.737334
177.870063	2136.558325	0.970917	-0.028005	2.743320
178.570065	2147.574238	0.975921	-0.028139	2.749305
178.990222	2158.617999	0.980926	-0.028220	2.755246
179.570366	2169.621937	0.985931	-0.028332	2.761178
180.299505	2180.652130	0.990936	-0.028472	2.767137
180.610410	2191.684335	0.995940	-0.028533	2.773014
181.412714	2202.658797	1.000945	-0.028686	2.778930
181.893178	2213.706845	1.005950	-0.028779	2.784818
182.471009	2224.759875	1.010954	-0.028890	2.790712
183.011422	2235.739410	1.015959	-0.028994	2.796549
183.704335	2246.778889	1.020964	-0.029127	2.802430
184.191310	2257.769111	1.025969	-0.029221	2.808240
184.675946	2268.827261	1.030973	-0.029315	2.814072
185.033903	2279.832057	1.035978	-0.029384	2.819844
186.028438	2290.820717	1.040983	-0.029574	2.825698
186.145913	2301.900468	1.045988	-0.029599	2.831446
186.505556	2312.928025	1.050992	-0.029669	2.837194
187.057982	2323.876977	1.055997	-0.029775	2.842921
187.986726	2334.898562	1.061002	-0.029952	2.848733
188.594018	2345.946602	1.066006	-0.030069	2.854495
189.153125	2356.964772	1.071011	-0.030176	2.860223
189.528623	2367.994900	1.076016	-0.030250	2.865917
190.405180	2378.995148	1.081021	-0.030417	2.871662
190.873340	2390.009384	1.086025	-0.030507	2.877339
191.294489	2401.049277	1.091030	-0.030589	2.883011
191.788336	2412.082344	1.096035	-0.030685	2.888679
192.376265	2423.077960	1.101039	-0.030798	2.894331
192.967765	2434.105199	1.106044	-0.030911	2.899989
193.466507	2445.112311	1.111049	-0.031008	2.905611
194.043524	2456.131720	1.116054	-0.031119	2.911240
194.739565	2467.124987	1.121058	-0.031252	2.916864
195.192662	2478.167547	1.126063	-0.031340	2.922464
195.876936	2489.182669	1.131068	-0.031471	2.928074
196.403585	2500.220700	1.136073	-0.031572	2.933661
197.056161	2511.212615	1.141077	-0.031698	2.939234
197.768714	2522.242515	1.146082	-0.031834	2.944823
198.318200	2533.291386	1.151087	-0.031940	2.950387
198.788669	2544.279670	1.156091	-0.032031	2.955898
199.437549	2555.303898	1.161096	-0.032155	2.961444
199.695069	2566.336168	1.166101	-0.032206	2.966924
200.280107	2577.344721	1.171106	-0.032319	2.972431
200.810193	2588.359161	1.176110	-0.032421	2.977923
201.354389	2599.348234	1.181115	-0.032526	2.983394
201.852584	2610.405788	1.186120	-0.032622	2.988881
202.484110	2621.411475	1.191125	-0.032743	2.994353
203.113233	2632.415669	1.196129	-0.032864	2.999813
203.622711	2643.453480	1.201134	-0.032962	3.005263
204.213379	2654.490094	1.206139	-0.033076	3.010713
204.581237	2665.488611	1.211143	-0.033148	3.016102
205.111023	2676.513532	1.216148	-0.033250	3.021518
205.602101	2687.507069	1.221153	-0.033345	3.026904
206.365112	2698.529407	1.226158	-0.033491	3.032333
206.668294	2709.582606	1.231162	-0.033550	3.037700
206.878262	2720.587341	1.236167	-0.033592	3.043022
207.284753	2731.614153	1.241172	-0.033671	3.048373
208.151836	2742.573111	1.246177	-0.033837	3.053747
208.592527	2753.668813	1.251181	-0.033922	3.059117
209.160629	2764.627488	1.256186	-0.034032	3.064429
209.906445	2775.657904	1.261191	-0.034174	3.069792
210.065057	2786.710650	1.266195	-0.034207	3.075073
210.597229	2797.709953	1.271200	-0.034309	3.080372
211.072042	2808.716772	1.276205	-0.034401	3.085657
211.544566	2819.753560	1.281210	-0.034493	3.090947
211.953835	2830.753743	1.286214	-0.034572	3.096202
212.331155	2841.781833	1.291219	-0.034646	3.101456
213.074200	2852.774851	1.296224	-0.034788	3.106736
213.470139	2863.829222	1.301228	-0.034865	3.111987
213.813961	2874.818167	1.306233	-0.034932	3.117191
214.324787	2885.868744	1.311238	-0.035031	3.122439
214.897377	2896.854829	1.316243	-0.035141	3.127656
215.255655	2907.882660	1.321247	-0.035211	3.132854
215.794208	2918.912493	1.326252	-0.035315	3.138069
216.301194	2929.917458	1.331257	-0.035412	3.143259
217.046810	2940.912300	1.336262	-0.035555	3.148469
217.438231	2951.972502	1.341266	-0.035631	3.153651
217.725883	2962.973676	1.346271	-0.035688	3.158784
218.327688	2973.973641	1.351276	-0.035804	3.163951
218.834495	2984.996914	1.356280	-0.035901	3.169106
219.588708	2995.997769	1.361285	-0.036046	3.174276
219.929093	3007.069906	1.366290	-0.036112	3.179415
220.529866	3018.034239	1.371295	-0.036228	3.184531
220.952972	3029.078675	1.376299	-0.036310	3.189651
221.574543	3040.083010	1.381304	-0.036429	3.194771
221.890577	3051.138874	1.386309	-0.036491	3.199866
222.593716	3062.101913	1.391314	-0.036626	3.204961
222.951362	3073.165289	1.396318	-0.036696	3.210049
223.290250	3084.170267	1.401323	-0.036762	3.215099
223.774331	3095.177105	1.406328	-0.036856	3.220161
224.419472	3106.158732	1.411332	-0.036979	3.225225
224.674176	3117.245989	1.416337	-0.037030	3.230277
225.296222	3128.214660	1.421342	-0.037149	3.235315
225.683817	3139.248444	1.426347	-0.037225	3.240345
226.329633	3150.250516	1.431351	-0.037349	3.245386
226.873498	3161.273930	1.436356	-0.037453	3.250415
227.316441	3172.298013	1.441361	-0.037539	3.255424
227.524532	3183.346215	1.446366	-0.037581	3.260405
228.080192	3194.316210	1.451370	-0.037688	3.265388
228.642766	3205.337190	1.456375	-0.037796	3.270388
229.074972	3216.390456	1.461380	-0.037880	3.275377
229.497578	3227.371225	1.466384	-0.037962	3.280325
229.983322	3238.397332	1.471389	-0.038056	3.285294
230.486650	3249.426472	1.476394	-0.038153	3.290258
230.816073	3260.443398	1.481399	-0.038218	3.295188
231.321388	3271.453949	1.486403	-0.038315	3.300129
231.643710	3282.472737	1.491408	-0.038379	3.305044
232.238580	3293.468414	1.496413	-0.038493	3.309975
232.673259	3304.499566	1.501417	-0.038577	3.314895
233.362478	3315.491786	1.506422	-0.038709	3.319821
233.877813	3326.562998	1.511427	-0.038809	3.324753
234.342539	3337.529547	1.516432	-0.038899	3.329626
234.606449	3348.585700	1.521436	-0.038951	3.334506
235.043357	3359.592395	1.526441	-0.039036	3.339378
235.562209	3370.589653	1.531446	-0.039136	3.344249
236.209308	3381.613892	1.536451	-0.039260	3.349140
236.685881	3392.646199	1.541455	-0.039352	3.354006
237.115240	3403.630725	1.546460	-0.039435	3.358839
237.772378	3414.661766	1.551465	-0.039561	3.363713
238.275908	3425.685549	1.556469	-0.039658	3.368558
238.705521	3436.695199	1.561474	-0.039742	3.373380
239.161628	3447.702059	1.566479	-0.039830	3.378198
239.637148	3458.753639	1.571484	-0.039922	3.383030
239.995488	3469.764401	1.576488	-0.039992	3.387824
240.309606	3480.755576	1.581493	-0.040054	3.392597
240.875178	3491.760021	1.586498	-0.040163	3.397399
241.354787	3502.825599	1.591503	-0.040255	3.402210
241.875399	3513.798315	1.596507	-0.040356	3.406979
242.395556	3524.830795	1.601512	-0.040456	3.411767
242.804633	3535.858240	1.606517	-0.040535	3.416532
243.058502	3546.888909	1.611521	-0.040586	3.421274
243.428056	3557.873070	1.616526	-0.040658	3.426004
243.933316	3568.915168	1.621531	-0.040755	3.430767
243.908388	3579.938190	1.626536	-0.040754	3.435453
244.675542	3590.893661	1.631540	-0.040900	3.440197
245.180794	3601.962245	1.636545	-0.040998	3.444951
245.570131	3612.976023	1.641550	-0.041073	3.449662
246.151772	3623.968560	1.646555	-0.041185	3.454380
246.521327	3635.020187	1.651559	-0.041257	3.459092
247.072130	3645.997476	1.656564	-0.041364	3.463787
247.334319	3657.066385	1.661569	-0.041415	3.468481
247.751543	3668.027857	1.666573	-0.041496	3.473141
248.356285	3679.057955	1.671578	-0.041613	3.477844
248.554832	3690.059020	1.676583	-0.041653	3.482483
249.100401	3701.121056	1.681588	-0.041758	3.487181
249.240035	3712.104737	1.686592	-0.041787	3.491793
249.605297	3723.129777	1.691597	-0.041858	3.496442
250.140294	3734.125856	1.696602	-0.041961	3.501092
250.730521	3745.172254	1.701606	-0.042075	3.505763
251.020263	3756.166230	1.706611	-0.042132	3.510371
251.603066	3767.203595	1.711616	-0.042244	3.515025
251.867226	3778.198048	1.716621	-0.042296	3.519619
252.402992	3789.222454	1.721625	-0.042399	3.524249
253.087412	3800.245778	1.726630	-0.042530	3.528890
253.546944	3811.277043	1.731635	-0.042619	3.533502
253.856295	3822.265350	1.736640	-0.042680	3.538074
254.240936	3833.272089	1.741644	-0.042755	3.542656
254.748204	3844.300590	1.746649	-0.042853	3.547254
255.033749	3855.322288	1.751654	-0.042909	3.551819
255.384019	3866.331137	1.756658	-0.042978	3.556380
255.813985	3877.349026	1.761663	-0.043061	3.560948
256.287258	3888.369835	1.766668	-0.043153	3.565515
256.776230	3899.373520	1.771673	-0.043247	3.570072
256.914274	3910.409233	1.776677	-0.043276	3.574597
257.581109	3921.401045	1.781682	-0.043404	3.579156
257.774045	3932.448271	1.786687	-0.043443	3.583680
258.248592	3943.469000	1.791692	-0.043534	3.588218
258.372527	3954.460065	1.796696	-0.043560	3.592700
258.900531	3965.475820	1.801701	-0.043662	3.597231
259.201782	3976.494637	1.806706	-0.043721	3.601732
259.885611	3987.492931	1.811710	-0.043852	3.606260
260.235249	3998.527212	1.816715	-0.043921	3.610762
260.528190	4009.559689	1.821720	-0.043978	3.615250
261.180023	4020.532741	1.826725	-0.044103	3.619748
261.535273	4031.589991	1.831729	-0.044173	3.624242
261.838350	4042.585050	1.836734	-0.044232	3.628700
262.354417	4053.603710	1.841739	-0.044332	3.633184
262.831004	4064.635194	1.846744	-0.044424	3.637664
263.433757	4075.625649	1.851748	-0.044540	3.642135
263.539562	4086.663457	1.856753	-0.044563	3.646567
264.127722	4097.680895	1.861758	-0.044676	3.651036
264.468891	4108.730317	1.866762	-0.044742	3.655487
264.997643	4119.730989	1.871767	-0.044844	3.659932
265.093945	4130.760082	1.876772	-0.044865	3.664338
265.425124	4141.795194	1.881777	-0.044930	3.668765
265.825629	4152.797518	1.886781	-0.045008	3.673181
266.430722	4163.827649	1.891786	-0.045124	3.677624
266.701859	4174.814665	1.896791	-0.045178	3.682010
267.147403	4185.847630	1.901795	-0.045264	3.686426
267.607214	4196.844715	1.906800	-0.045353	3.690825
268.279508	4207.876740	1.911805	-0.045482	3.695254
268.581567	4218.874742	1.916810	-0.045541	3.699626
269.182206	4229.891736	1.921814	-0.045657	3.704031
269.620332	4240.911349	1.926819	-0.045742	3.708415
269.752249	4251.960932	1.931824	-0.045769	3.712774
269.922809	4262.962731	1.936829	-0.045804	3.717113
270.306899	4273.953414	1.941833	-0.045879	3.721465
270.679364	4284.986602	1.946838	-0.045951	3.725826
271.170194	4295.980984	1.951843	-0.046046	3.730180
271.211955	4307.028385	1.956847	-0.046057	3.734503
271.882589	4318.018043	1.961852	-0.046185	3.738863
272.373435	4329.020062	1.966857	-0.046280	3.743203
