Wed Nov 23 19:25:19 2022

Number of Points = 2200
Depth (nm)	Load (µN)	Time (s)	Depth (V)	Load (V)
-1.512878	1.219345	0.000000	-0.034843	1.148724
0.000000	8.200839	0.005005	-0.035129	1.158276
1.330530	17.766335	0.010009	-0.035381	1.170895
2.609405	28.581483	0.015014	-0.035624	1.184897
3.551733	39.681695	0.020019	-0.035803	1.198932
4.460608	50.807788	0.025024	-0.035977	1.212821
5.158319	61.943944	0.030028	-0.036110	1.226471
6.074552	73.009639	0.035033	-0.036285	1.239982
6.718057	84.137622	0.040038	-0.036408	1.253303
7.494987	95.250564	0.045043	-0.036557	1.266523
7.972201	106.368364	0.050047	-0.036649	1.279486
8.590523	117.440670	0.055052	-0.036768	1.292325
9.204694	128.575448	0.060057	-0.036886	1.305106
9.826199	139.638888	0.065061	-0.037005	1.317687
13.149094	149.756866	0.070066	-0.037631	1.330188
21.705862	160.498081	0.075071	-0.039240	1.345315
22.821084	172.564495	0.080076	-0.039452	1.358790
24.739290	183.651582	0.085080	-0.039815	1.371399
25.958094	194.874036	0.090085	-0.040046	1.383768
27.398008	205.926160	0.095090	-0.040319	1.395931
28.424522	217.060841	0.100094	-0.040514	1.407919
29.684416	228.105314	0.105099	-0.040754	1.419799
30.708883	239.195403	0.110104	-0.040949	1.431540
32.083259	250.217342	0.115109	-0.041209	1.443243
33.298005	261.294091	0.120113	-0.041440	1.454849
34.513191	272.401716	0.125118	-0.041671	1.466393
35.331807	283.495435	0.130123	-0.041827	1.477691
36.689620	294.460344	0.135128	-0.042084	1.488967
38.208963	305.506873	0.140132	-0.042372	1.500293
39.704481	316.562651	0.145137	-0.042656	1.511534
40.669267	327.734971	0.150142	-0.042839	1.522621
41.419513	338.816307	0.155146	-0.042983	1.533467
42.238083	349.876414	0.160151	-0.043139	1.544239
43.617039	360.826041	0.165156	-0.043401	1.555021
44.566922	371.944104	0.170161	-0.043582	1.565742
45.585350	383.010100	0.175165	-0.043776	1.576364
46.708875	394.025166	0.180170	-0.043989	1.586902
47.858775	405.088592	0.185175	-0.044208	1.597423
48.844437	416.141956	0.190180	-0.044395	1.607812
49.847480	427.243400	0.195184	-0.044586	1.618183
51.098378	438.209700	0.200189	-0.044824	1.628445
52.217758	449.292143	0.205194	-0.045036	1.638704
52.947937	460.391496	0.210198	-0.045176	1.648791
53.757510	471.452081	0.215203	-0.045331	1.658807
54.707549	482.452270	0.220208	-0.045512	1.668753
55.751834	493.486670	0.225213	-0.045711	1.678698
56.602188	504.573979	0.230217	-0.045873	1.688571
57.430572	515.643163	0.235222	-0.046031	1.698364
58.209151	526.629356	0.240227	-0.046180	1.708014
59.409685	537.659717	0.245232	-0.046408	1.717774
60.525984	548.693219	0.250236	-0.046620	1.727456
61.667560	559.740887	0.255241	-0.046837	1.737102
62.356469	570.849410	0.260246	-0.046969	1.746613
63.260135	581.864298	0.265250	-0.047141	1.756056
64.096391	592.917142	0.270255	-0.047301	1.765460
65.008169	603.951375	0.275260	-0.047475	1.774821
66.142853	614.921705	0.280265	-0.047690	1.784144
67.502077	625.970548	0.285269	-0.047948	1.793545
68.081859	637.110502	0.290274	-0.048060	1.802750
68.981807	648.125737	0.295279	-0.048231	1.811897
69.454326	659.186008	0.300283	-0.048323	1.820915
70.788070	670.118695	0.305288	-0.048576	1.830026
71.603946	681.229458	0.310293	-0.048731	1.839089
72.614293	692.233582	0.315298	-0.048924	1.848076
73.220839	703.364824	0.320302	-0.049040	1.857009
74.141271	714.321895	0.325307	-0.049216	1.865848
75.152286	725.351656	0.330312	-0.049408	1.874727
76.198894	736.398864	0.335317	-0.049607	1.883586
76.746218	747.490663	0.340321	-0.049713	1.892303
77.699673	758.482364	0.345326	-0.049894	1.901012
78.604226	769.475543	0.350331	-0.050067	1.909669
79.600046	780.553635	0.355335	-0.050256	1.918375
80.525915	791.587263	0.360340	-0.050433	1.926989
81.352250	802.653336	0.365345	-0.050591	1.935563
81.935199	813.678707	0.370350	-0.050703	1.944005
82.619989	824.717235	0.375354	-0.050834	1.952447
83.178828	835.750946	0.380359	-0.050942	1.960815
84.257473	846.732404	0.385364	-0.051147	1.969243
84.947396	857.801792	0.390369	-0.051279	1.977599
85.864585	868.832652	0.395373	-0.051454	1.985950
86.332261	879.898650	0.400378	-0.051544	1.994178
87.219972	890.888272	0.405383	-0.051714	2.002421
87.743843	901.962697	0.410387	-0.051815	2.010601
88.842859	912.933537	0.415392	-0.052024	2.018815
89.511727	923.999960	0.420397	-0.052152	2.026959
90.149008	935.066877	0.425402	-0.052274	2.035062
90.841745	946.052372	0.430406	-0.052407	2.043088
91.712264	957.086806	0.435411	-0.052573	2.051160
92.349711	968.126674	0.440416	-0.052695	2.059148
93.336596	979.120918	0.445421	-0.052883	2.067157
94.120316	990.190439	0.450425	-0.053033	2.075138
94.708193	1001.224851	0.455430	-0.053146	2.083018
95.094023	1012.295621	0.460435	-0.053221	2.090844
95.963723	1023.261814	0.465439	-0.053387	2.098683
96.711858	1034.307520	0.470444	-0.053530	2.106520
97.724861	1045.308898	0.475449	-0.053723	2.114358
98.208745	1056.405286	0.480454	-0.053816	2.122108
98.712581	1067.433546	0.485458	-0.053914	2.129789
99.385186	1078.426560	0.490463	-0.054043	2.137456
100.391365	1089.437072	0.495468	-0.054234	2.145185
100.963374	1100.498516	0.500472	-0.054344	2.152820
101.652265	1111.521885	0.505477	-0.054476	2.160429
102.022684	1122.588776	0.510482	-0.054549	2.167968
102.871383	1133.570868	0.515487	-0.054710	2.175532
103.398484	1144.601397	0.520491	-0.054812	2.183030
104.318606	1155.616414	0.525496	-0.054987	2.190579
104.972282	1166.670194	0.530501	-0.055113	2.198069
105.611354	1177.700438	0.535506	-0.055236	2.205514
105.997497	1188.750332	0.540510	-0.055311	2.212890
106.544088	1199.747261	0.545515	-0.055416	2.220243
107.005762	1210.791017	0.550520	-0.055505	2.227583
108.089208	1221.740538	0.555524	-0.055711	2.234973
108.590453	1232.841133	0.560529	-0.055808	2.242310
109.204853	1243.870717	0.565534	-0.055926	2.249601
109.768203	1254.894512	0.570539	-0.056035	2.256854
110.534449	1265.888364	0.575543	-0.056181	2.264107
111.068376	1276.946725	0.580548	-0.056284	2.271329
111.731329	1287.945174	0.585553	-0.056411	2.278517
112.362931	1298.962005	0.590558	-0.056532	2.285687
112.963672	1310.019359	0.595562	-0.056648	2.292854
113.603372	1321.045883	0.600567	-0.056771	2.299987
114.386719	1332.024589	0.605572	-0.056920	2.307097
114.991501	1343.093311	0.610576	-0.057037	2.314205
115.521298	1354.109309	0.615581	-0.057139	2.321242
116.003610	1365.155895	0.620586	-0.057232	2.328267
116.567631	1376.163523	0.625591	-0.057340	2.335263
117.237022	1387.188498	0.630595	-0.057469	2.342270
117.905673	1398.183635	0.635600	-0.057597	2.349238
118.488216	1409.241446	0.640605	-0.057709	2.356206
118.963915	1420.275547	0.645610	-0.057801	2.363117
119.399054	1431.293122	0.650614	-0.057885	2.369989
120.046623	1442.306690	0.655619	-0.058010	2.376882
120.468121	1453.358243	0.660624	-0.058091	2.383732
120.992241	1464.361865	0.665628	-0.058193	2.390554
121.593541	1475.370558	0.670633	-0.058308	2.397374
122.088351	1486.422303	0.675638	-0.058404	2.404180
122.454118	1497.448783	0.680643	-0.058475	2.410926
123.098894	1508.430492	0.685647	-0.058599	2.417681
123.610247	1519.495666	0.690652	-0.058697	2.424441
124.452887	1530.459303	0.695657	-0.058858	2.431186
125.154943	1541.513964	0.700661	-0.058993	2.437938
125.674624	1552.552282	0.705666	-0.059093	2.444627
126.138808	1563.585629	0.710671	-0.059183	2.451284
126.514401	1574.592708	0.715676	-0.059256	2.457889
127.025305	1585.603814	0.720680	-0.059355	2.464506
127.523871	1596.666233	0.725685	-0.059451	2.471132
127.992252	1607.651291	0.730690	-0.059542	2.477689
128.647443	1618.680478	0.735695	-0.059667	2.484290
129.100126	1629.720591	0.740699	-0.059755	2.490842
129.542555	1640.749873	0.745704	-0.059841	2.497367
129.865017	1651.771614	0.750709	-0.059904	2.503849
130.545792	1662.739399	0.755713	-0.060034	2.510350
131.001224	1673.824632	0.760718	-0.060123	2.516859
131.718051	1684.797639	0.765723	-0.060260	2.523336
132.362929	1695.820938	0.770728	-0.060383	2.529811
132.778428	1706.887104	0.775732	-0.060464	2.536252
133.195058	1717.884350	0.780737	-0.060545	2.542637
133.675664	1728.923635	0.785742	-0.060638	2.549042
134.175089	1739.925603	0.790747	-0.060734	2.555412
134.794531	1750.937440	0.795751	-0.060853	2.561794
135.150687	1761.996986	0.800756	-0.060923	2.568140
135.735591	1773.039082	0.805761	-0.061035	2.574501
136.066579	1784.041116	0.810765	-0.061100	2.580777
136.708597	1795.025050	0.815770	-0.061223	2.587084
137.112972	1806.069970	0.820775	-0.061302	2.593368
137.664712	1817.065550	0.825780	-0.061408	2.599634
138.165569	1828.105521	0.830784	-0.061505	2.605901
138.719003	1839.137485	0.835789	-0.061612	2.612158
138.983852	1850.161603	0.840794	-0.061664	2.618344
139.563875	1861.138682	0.845799	-0.061776	2.624545
140.048088	1872.202630	0.850803	-0.061869	2.630763
140.483614	1883.203473	0.855808	-0.061954	2.636922
140.756828	1894.270613	0.860813	-0.062008	2.643075
141.244048	1905.243111	0.865817	-0.062102	2.649199
141.695286	1916.255912	0.870822	-0.062189	2.655324
142.344057	1927.284030	0.875827	-0.062314	2.661478
142.607868	1938.345538	0.880832	-0.062366	2.667569
143.204359	1949.314196	0.885836	-0.062481	2.673653
143.537326	1960.373572	0.890841	-0.062546	2.679727
144.100131	1971.357070	0.895846	-0.062654	2.685785
144.407502	1982.427113	0.900850	-0.062714	2.691832
145.007077	1993.383447	0.905855	-0.062830	2.697855
145.380309	2004.446794	0.910860	-0.062902	2.703883
146.005270	2015.452583	0.915865	-0.063022	2.709909
146.312544	2026.478197	0.920869	-0.063083	2.715878
146.827895	2037.508019	0.925874	-0.063182	2.721872
147.217272	2048.511121	0.930879	-0.063258	2.727817
147.625982	2059.521525	0.935884	-0.063337	2.733756
147.990021	2070.536908	0.940888	-0.063408	2.739677
148.554735	2081.532006	0.945893	-0.063517	2.745608
148.952437	2092.589677	0.950898	-0.063595	2.751531
149.586893	2103.571081	0.955902	-0.063716	2.757441
150.111409	2114.609984	0.960907	-0.063817	2.763349
150.638125	2125.616669	0.965912	-0.063919	2.769229
151.040810	2136.661664	0.970917	-0.063997	2.775095
151.599652	2147.653285	0.975921	-0.064105	2.780947
151.868097	2158.710690	0.980926	-0.064158	2.786773
152.454580	2169.698110	0.985931	-0.064271	2.792602
152.756956	2180.751227	0.990936	-0.064330	2.798407
153.150011	2191.745417	0.995940	-0.064407	2.804184
153.469309	2202.800689	1.000945	-0.064469	2.809969
153.764911	2213.805560	1.005950	-0.064528	2.815712
154.167889	2224.806091	1.010954	-0.064606	2.821458
154.822529	2235.799042	1.015959	-0.064731	2.827228
155.293496	2246.853745	1.020964	-0.064823	2.832989
155.703518	2257.854744	1.025969	-0.064902	2.838702
156.180463	2268.890102	1.030973	-0.064994	2.844430
156.696670	2279.901961	1.035978	-0.065094	2.850141
157.060144	2290.932071	1.040983	-0.065165	2.855826
157.533178	2301.937418	1.045988	-0.065256	2.861504
157.912596	2312.981028	1.050992	-0.065330	2.867175
158.303763	2323.967565	1.055997	-0.065406	2.872808
158.650599	2335.017504	1.061002	-0.065474	2.878456
159.089661	2346.017391	1.066006	-0.065559	2.884080
159.343738	2357.067982	1.071011	-0.065610	2.889691
159.663524	2368.068725	1.076016	-0.065673	2.895276
160.033904	2379.086212	1.081021	-0.065745	2.900867
160.497030	2390.093349	1.086025	-0.065834	2.906455
160.963442	2401.112468	1.091030	-0.065925	2.912039
161.399412	2412.111864	1.096035	-0.066009	2.917598
161.850804	2423.145610	1.101039	-0.066097	2.923165
162.243175	2434.184936	1.106044	-0.066173	2.928716
162.669351	2445.178118	1.111049	-0.066256	2.934238
163.280236	2456.192585	1.116054	-0.066373	2.939788
163.484722	2467.234247	1.121058	-0.066414	2.945280
163.962613	2478.262700	1.126063	-0.066507	2.950796
164.409775	2489.251242	1.131068	-0.066593	2.956277
164.819440	2500.286638	1.136073	-0.066673	2.961766
165.083057	2511.317696	1.141077	-0.066725	2.967220
165.529453	2522.315486	1.146082	-0.066811	2.972675
165.961059	2533.331415	1.151087	-0.066895	2.978127
166.341123	2544.359220	1.156091	-0.066969	2.983566
166.653569	2555.386246	1.161096	-0.067031	2.988986
167.040364	2566.395232	1.166101	-0.067106	2.994398
167.498109	2577.402624	1.171106	-0.067194	2.999809
168.018883	2588.420524	1.176110	-0.067295	3.005225
168.244797	2599.476855	1.181115	-0.067340	3.010606
168.367988	2610.479807	1.186120	-0.067366	3.015938
169.003617	2621.459271	1.191125	-0.067488	3.021322
169.414308	2632.484695	1.196129	-0.067568	3.026687
169.977168	2643.525039	1.201134	-0.067676	3.032071
170.422002	2654.525039	1.206139	-0.067762	3.037409
170.774194	2665.574449	1.211143	-0.067831	3.042748
171.295027	2676.567291	1.216148	-0.067931	3.048074
171.467670	2687.605536	1.221153	-0.067967	3.053364
171.805231	2698.611484	1.226158	-0.068033	3.058652
172.169659	2709.628217	1.231162	-0.068104	3.063939
172.487476	2720.643301	1.236167	-0.068166	3.069211
172.946587	2731.658895	1.241172	-0.068255	3.074493
173.430761	2742.673961	1.246177	-0.068349	3.079769
173.972019	2753.673689	1.251181	-0.068453	3.085037
174.491445	2764.727770	1.256186	-0.068553	3.090318
174.631289	2775.759256	1.261191	-0.068582	3.095527
174.885773	2786.757042	1.266195	-0.068633	3.100727
175.198515	2797.757070	1.271200	-0.068694	3.105927
175.691188	2808.793015	1.276205	-0.068789	3.111160
175.961315	2819.815870	1.281210	-0.068843	3.116347
176.488852	2830.791821	1.286214	-0.068944	3.121540
176.804147	2841.866338	1.291219	-0.069006	3.126740
177.157495	2852.846990	1.296224	-0.069075	3.131893
177.481569	2863.888337	1.301228	-0.069139	3.137062
177.764605	2874.880678	1.306233	-0.069195	3.142194
178.080347	2885.931713	1.311238	-0.069256	3.147349
178.614445	2896.900227	1.316243	-0.069359	3.152487
178.966155	2907.960061	1.321247	-0.069428	3.157634
179.396032	2918.946977	1.326252	-0.069512	3.162749
179.635619	2930.004140	1.331257	-0.069559	3.167863
180.166523	2940.969489	1.336262	-0.069662	3.172965
180.556503	2952.028100	1.341266	-0.069737	3.178083
180.786710	2963.042710	1.346271	-0.069783	3.183151
180.912001	2974.069964	1.351276	-0.069810	3.188203
181.503243	2985.036716	1.356280	-0.069923	3.193281
181.858028	2996.091358	1.361285	-0.069993	3.198360
182.331807	3007.083466	1.366290	-0.070084	3.203418
182.485417	3018.143926	1.371295	-0.070116	3.208456
182.679050	3029.135205	1.376299	-0.070155	3.213461
183.048833	3040.152438	1.381304	-0.070227	3.218492
183.512167	3051.140282	1.386309	-0.070317	3.223515
183.965442	3062.204763	1.391314	-0.070404	3.228562
184.106806	3073.207348	1.396318	-0.070434	3.233534
184.395817	3084.222839	1.401323	-0.070491	3.238522
184.764872	3095.240306	1.406328	-0.070563	3.243514
185.366881	3106.243217	1.411332	-0.070678	3.248522
185.816886	3117.245093	1.416337	-0.070765	3.253502
186.140982	3128.308692	1.421342	-0.070829	3.258486
186.672750	3139.269272	1.426347	-0.070931	3.263442
186.745425	3150.354262	1.431351	-0.070948	3.268388
187.039650	3161.319159	1.436356	-0.071006	3.273301
187.399356	3172.368019	1.441361	-0.071076	3.278252
187.782311	3183.351921	1.446366	-0.071151	3.283170
188.180714	3194.411103	1.451370	-0.071228	3.288116
188.461664	3205.408306	1.456375	-0.071284	3.293012
188.746911	3216.419522	1.461380	-0.071340	3.297907
189.318743	3227.398754	1.466384	-0.071450	3.302817
189.659481	3238.479514	1.471389	-0.071516	3.307735
190.036307	3249.458807	1.476394	-0.071590	3.312605
190.326272	3260.499837	1.481399	-0.071647	3.317485
190.650980	3271.494112	1.486403	-0.071711	3.322341
191.054948	3282.531723	1.491408	-0.071789	3.327219
191.585207	3293.493836	1.496413	-0.071891	3.332072
192.206140	3304.537911	1.501417	-0.072011	3.336965
192.597355	3315.566556	1.506422	-0.072087	3.341816
192.606846	3326.619699	1.511427	-0.072091	3.346623
192.977099	3337.595417	1.516432	-0.072164	3.351434
193.261134	3348.639543	1.521436	-0.072220	3.356257
193.667859	3359.617127	1.526441	-0.072299	3.361060
193.980553	3370.672526	1.531446	-0.072360	3.365877
194.229251	3381.662093	1.536451	-0.072409	3.370652
194.602590	3392.682687	1.541455	-0.072482	3.375448
194.975148	3403.685427	1.546460	-0.072555	3.380229
195.388865	3414.723164	1.551465	-0.072635	3.385024
196.010725	3425.714646	1.556469	-0.072755	3.389816
196.283229	3436.769148	1.561474	-0.072808	3.394587
196.610250	3447.763743	1.566479	-0.072873	3.399332
196.799005	3458.827005	1.571484	-0.072911	3.404084
197.064232	3469.780777	1.576488	-0.072963	3.408791
197.603321	3480.808225	1.581493	-0.073067	3.413555
197.704465	3491.832575	1.586498	-0.073089	3.418260
197.977959	3502.845892	1.591503	-0.073143	3.422973
198.289299	3513.863468	1.596507	-0.073204	3.427686
198.515888	3524.900720	1.601512	-0.073249	3.432392
199.244439	3535.854146	1.606517	-0.073389	3.437113
199.728741	3546.929728	1.611521	-0.073482	3.441852
200.141359	3557.933436	1.616526	-0.073562	3.446545
200.377247	3568.957353	1.621531	-0.073609	3.451219
200.641093	3579.953149	1.626536	-0.073662	3.455879
201.386488	3590.947967	1.631540	-0.073804	3.460587
202.039006	3601.973482	1.636545	-0.073929	3.465291
202.495759	3613.022691	1.641550	-0.074018	3.469976
202.661862	3624.033121	1.646555	-0.074052	3.474605
202.774573	3635.078196	1.651559	-0.074076	3.479236
203.038808	3646.054882	1.656564	-0.074128	3.483850
203.338655	3657.113828	1.661569	-0.074187	3.488496
203.658514	3668.059331	1.666573	-0.074250	3.493090
204.051330	3679.116138	1.671578	-0.074326	3.497733
204.330239	3690.123415	1.676583	-0.074381	3.502337
204.729391	3701.145956	1.681588	-0.074459	3.506954
205.049958	3712.145869	1.686592	-0.074522	3.511547
205.563194	3723.162698	1.691597	-0.074621	3.516162
206.098442	3734.185504	1.696602	-0.074724	3.520776
206.271214	3745.225024	1.701606	-0.074759	3.525350
206.540211	3756.237917	1.706611	-0.074812	3.529918
206.724436	3767.247185	1.711616	-0.074849	3.534470
207.173343	3778.232988	1.716621	-0.074936	3.539034
207.725453	3789.283262	1.721625	-0.075043	3.543631
207.983753	3800.285596	1.726630	-0.075094	3.548170
208.158809	3811.308576	1.731635	-0.075129	3.552702
208.283564	3822.327956	1.736640	-0.075156	3.557222
208.641471	3833.321968	1.741644	-0.075226	3.561751
209.050068	3844.358101	1.746649	-0.075305	3.566296
209.383093	3855.353726	1.751654	-0.075370	3.570811
209.931597	3866.359031	1.756658	-0.075476	3.575348
210.121536	3877.411395	1.761663	-0.075514	3.579859
210.342134	3888.398877	1.766668	-0.075558	3.584341
210.670417	3899.441802	1.771673	-0.075623	3.588852
211.060025	3910.427046	1.776677	-0.075698	3.593340
211.608348	3921.470782	1.781682	-0.075804	3.597863
211.794219	3932.454062	1.786687	-0.075842	3.602317
211.917424	3943.525818	1.791692	-0.075867	3.606795
212.268871	3954.488968	1.796696	-0.075936	3.611247
212.761551	3965.520268	1.801701	-0.076031	3.615737
213.234729	3976.514107	1.806706	-0.076123	3.620203
213.474495	3987.593662	1.811710	-0.076171	3.624674
213.574268	3998.553287	1.816715	-0.076192	3.629076
213.902238	4009.597353	1.821720	-0.076256	3.633531
214.143575	4020.609284	1.826725	-0.076304	3.637959
214.547969	4031.639737	1.831729	-0.076383	3.642405
214.857126	4042.636951	1.836734	-0.076444	3.646823
215.065529	4053.645170	1.841739	-0.076485	3.651229
215.325213	4064.643235	1.846744	-0.076537	3.655631
215.561433	4075.690804	1.851748	-0.076584	3.660045
216.082764	4086.680568	1.856753	-0.076685	3.664460
216.440150	4097.754430	1.861758	-0.076754	3.668886
216.703673	4108.778076	1.866762	-0.076806	3.673277
216.984497	4119.812221	1.871767	-0.076862	3.677669
217.291219	4130.802443	1.876772	-0.076922	3.682040
217.807215	4141.816552	1.881777	-0.077022	3.686438
218.162878	4152.816115	1.886781	-0.077091	3.690808
218.378576	4163.871675	1.891786	-0.077134	3.695180
218.651784	4174.826273	1.896791	-0.077188	3.699513
218.963299	4185.908179	1.901795	-0.077250	3.703895
219.235528	4196.875812	1.906800	-0.077303	3.708223
219.585942	4207.932825	1.911805	-0.077372	3.712589
219.995228	4218.920100	1.916810	-0.077451	3.716928
220.252214	4229.952612	1.921814	-0.077502	3.721265
220.488029	4240.972450	1.926819	-0.077549	3.725589
220.706511	4251.967280	1.931824	-0.077593	3.729897
221.024325	4262.984810	1.936829	-0.077655	3.734218
221.349757	4274.001377	1.941833	-0.077719	3.738535
221.697793	4285.009088	1.946838	-0.077787	3.742846
221.897396	4296.066166	1.951843	-0.077827	3.747156
222.131202	4307.033100	1.956847	-0.077874	3.751429
222.651561	4318.069496	1.961852	-0.077974	3.755753
222.933327	4329.059539	1.966857	-0.078030	3.760030
