Wed Nov 23 18:09:14 2022

Number of Points = 2200
Depth (nm)	Load (µN)	Time (s)	Depth (V)	Load (V)
0.000000	2.298146	0.000000	-0.000635	1.061118
2.465724	7.969353	0.005005	-0.001099	1.070187
4.848307	17.118852	0.010009	-0.001548	1.083860
6.610632	27.918807	0.015014	-0.001881	1.099262
8.028988	39.067108	0.020019	-0.002150	1.114741
9.151329	50.243157	0.025024	-0.002364	1.129902
9.987013	61.461308	0.030028	-0.002523	1.144780
10.739074	72.603234	0.035033	-0.002667	1.159331
11.299499	83.769850	0.040038	-0.002775	1.173644
11.863360	94.883860	0.045043	-0.002884	1.187721
12.227593	106.046242	0.050047	-0.002955	1.201602
12.728225	117.098424	0.055052	-0.003051	1.215251
13.277918	128.230000	0.060057	-0.003157	1.228865
13.544647	139.353570	0.065061	-0.003210	1.242198
13.978656	150.426929	0.070066	-0.003294	1.255401
14.298776	161.526599	0.075071	-0.003357	1.268450
14.780964	172.607960	0.080076	-0.003450	1.281412
15.173880	183.689743	0.085080	-0.003527	1.294207
15.536209	194.861839	0.090085	-0.003597	1.306965
15.728526	205.899754	0.095090	-0.003636	1.319382
16.168635	216.936490	0.100094	-0.003722	1.331782
16.371445	228.058461	0.105099	-0.003762	1.344065
16.855632	239.083096	0.110104	-0.003856	1.356242
17.166083	250.183885	0.115109	-0.003917	1.368325
17.614324	261.244085	0.120113	-0.004004	1.380311
17.926692	272.312328	0.125118	-0.004065	1.392151
18.283065	283.402548	0.130123	-0.004135	1.403930
18.501365	294.471241	0.135128	-0.004178	1.415537
19.017979	305.516754	0.140132	-0.004278	1.427137
19.127051	316.622242	0.145137	-0.004301	1.438554
19.593756	327.643609	0.150142	-0.004392	1.449926
22.843079	337.687784	0.155146	-0.005004	1.461235
41.527438	346.884445	0.160151	-0.008512	1.477144
41.953014	360.508153	0.165156	-0.008595	1.490763
42.568940	371.846690	0.170161	-0.008714	1.502095
43.142931	382.932961	0.175165	-0.008824	1.513083
44.050393	393.947968	0.180170	-0.008997	1.524038
44.853537	405.034052	0.185175	-0.009151	1.534946
45.739627	416.057512	0.190180	-0.009320	1.545746
46.531641	427.129589	0.195184	-0.009471	1.556484
47.863097	438.093601	0.200189	-0.009723	1.567228
48.943802	449.173995	0.205194	-0.009929	1.577922
50.039990	460.241761	0.210198	-0.010137	1.588538
50.789855	471.353511	0.215203	-0.010281	1.599010
51.810332	482.366199	0.220208	-0.010475	1.609410
52.776483	493.430363	0.225213	-0.010659	1.619773
53.643020	504.480238	0.230217	-0.010824	1.630024
54.492431	515.540806	0.235222	-0.010987	1.640215
55.428861	526.562532	0.240227	-0.011165	1.650335
56.406726	537.590093	0.245232	-0.011351	1.660412
57.367669	548.660043	0.250236	-0.011534	1.670459
58.184689	559.726814	0.255241	-0.011690	1.680398
59.347801	570.722090	0.260246	-0.011911	1.690323
60.057670	581.821316	0.265250	-0.012047	1.700140
60.958626	592.875052	0.270255	-0.012219	1.709920
61.736076	603.884224	0.275260	-0.012368	1.719568
62.902037	614.902820	0.280265	-0.012589	1.729287
63.613240	626.019961	0.285269	-0.012725	1.738898
64.378919	637.039283	0.290274	-0.012872	1.748390
65.228600	648.065467	0.295279	-0.013034	1.757861
66.195027	659.107165	0.300283	-0.013218	1.767328
67.003950	670.172872	0.305288	-0.013373	1.776718
67.629031	681.220781	0.310293	-0.013493	1.785991
68.610358	692.205691	0.315298	-0.013679	1.795266
69.266877	703.316921	0.320302	-0.013805	1.804503
69.808503	714.353000	0.325307	-0.013910	1.813600
70.821224	725.315593	0.330312	-0.014102	1.822724
71.813059	736.395168	0.335317	-0.014291	1.831890
72.593520	747.452257	0.340321	-0.014440	1.840933
73.322333	758.464055	0.345326	-0.014580	1.849882
74.181987	769.521664	0.350331	-0.014744	1.858859
74.668289	780.583370	0.355335	-0.014838	1.867694
75.656118	791.551811	0.360340	-0.015026	1.876551
76.337190	802.654058	0.365345	-0.015157	1.885386
77.028942	813.691059	0.370350	-0.015289	1.894133
77.505852	824.724223	0.375354	-0.015381	1.902778
78.359313	835.722250	0.380359	-0.015544	1.911458
79.084141	846.759151	0.385364	-0.015683	1.920093
80.031605	857.804052	0.390369	-0.015863	1.928754
80.552077	868.878604	0.395373	-0.015964	1.937287
81.107215	879.899737	0.400378	-0.016071	1.945751
81.682508	890.925220	0.405383	-0.016181	1.954186
82.287261	901.956799	0.410387	-0.016298	1.962597
82.839788	912.996468	0.415392	-0.016404	1.970965
83.708628	924.003555	0.420397	-0.016570	1.979353
84.136728	935.070742	0.425402	-0.016653	1.987638
84.692089	946.105251	0.430406	-0.016760	1.995897
85.134093	957.126798	0.435411	-0.016845	2.004083
85.927567	968.143349	0.440416	-0.016997	2.012320
86.499639	979.221406	0.445421	-0.017107	2.020513
86.936147	990.225736	0.450425	-0.017192	2.028586
87.443154	1001.254953	0.455430	-0.017290	2.036661
88.068773	1012.273941	0.460435	-0.017410	2.044727
88.833248	1023.299759	0.465439	-0.017556	2.052799
89.613382	1034.349112	0.470444	-0.017705	2.060860
89.817337	1045.408171	0.475449	-0.017746	2.068756
90.143017	1056.473639	0.480454	-0.017810	2.076657
90.670599	1067.434798	0.485458	-0.017912	2.084502
91.254729	1078.472273	0.490463	-0.018024	2.092384
91.811496	1089.519532	0.495468	-0.018131	2.100237
92.418655	1100.515908	0.500472	-0.018248	2.108038
93.083888	1111.564399	0.505477	-0.018375	2.115859
93.363708	1122.619951	0.510482	-0.018431	2.123565
93.833641	1133.620980	0.515487	-0.018522	2.131250
94.796137	1144.592542	0.520491	-0.018705	2.139002
95.762559	1155.638443	0.525496	-0.018889	2.146777
96.424521	1166.703047	0.530501	-0.019016	2.154466
96.635154	1177.774777	0.535506	-0.019058	2.162029
97.070921	1188.799828	0.540510	-0.019143	2.169585
97.521099	1199.798225	0.545515	-0.019230	2.177101
97.914317	1210.835586	0.550520	-0.019306	2.184603
98.372026	1221.845230	0.555524	-0.019395	2.192076
98.724056	1232.924199	0.560529	-0.019464	2.199545
99.247584	1243.864460	0.565534	-0.019565	2.206936
99.914613	1254.945536	0.570539	-0.019693	2.214426
100.352133	1265.942147	0.575543	-0.019777	2.221785
101.000048	1276.988696	0.580548	-0.019902	2.229198
101.421952	1288.032443	0.585553	-0.019984	2.236535
101.954294	1299.026652	0.590558	-0.020086	2.243840
102.511972	1310.043596	0.595562	-0.020194	2.251141
103.108557	1321.099162	0.600567	-0.020308	2.258452
103.721748	1332.104632	0.605572	-0.020426	2.265710
104.146086	1343.176119	0.610576	-0.020508	2.272947
104.143415	1354.205294	0.615581	-0.020511	2.280042
104.875668	1365.151618	0.620586	-0.020651	2.287218
105.340824	1376.240922	0.625591	-0.020741	2.294407
105.894128	1387.223081	0.630595	-0.020847	2.301523
106.032516	1398.318679	0.635600	-0.020876	2.308601
106.544405	1409.282665	0.640605	-0.020975	2.315654
106.676436	1420.364281	0.645610	-0.021002	2.322679
107.161517	1431.346342	0.650614	-0.021096	2.329694
107.914176	1442.328591	0.655619	-0.021240	2.336743
108.687904	1453.385205	0.660624	-0.021388	2.343822
109.230713	1464.381535	0.665628	-0.021493	2.350794
109.701636	1475.459290	0.670633	-0.021584	2.357781
109.916250	1486.499334	0.675638	-0.021627	2.364672
110.211800	1497.514865	0.680643	-0.021685	2.371543
110.628814	1508.506767	0.685647	-0.021766	2.378405
111.159125	1519.537200	0.690652	-0.021868	2.385294
111.453127	1530.593268	0.695657	-0.021926	2.392130
111.671688	1541.626465	0.700661	-0.021970	2.398918
112.150538	1552.567969	0.705666	-0.022062	2.405683
112.616362	1563.668742	0.710671	-0.022152	2.412523
113.041474	1574.650547	0.715676	-0.022235	2.419263
113.464563	1585.688606	0.720680	-0.022317	2.426018
113.734857	1596.703362	0.725685	-0.022370	2.432710
114.139393	1607.744186	0.730690	-0.022449	2.439425
114.447195	1618.763454	0.735695	-0.022510	2.446090
115.159913	1629.757003	0.740699	-0.022646	2.452801
115.544644	1640.784199	0.745704	-0.022721	2.459449
115.952949	1651.815451	0.750709	-0.022800	2.466086
116.423652	1662.843771	0.755713	-0.022891	2.472715
116.539884	1673.919499	0.760718	-0.022916	2.479287
116.791300	1684.887773	0.765723	-0.022966	2.485803
117.613721	1695.886103	0.770728	-0.023123	2.492429
117.843731	1706.960528	0.775732	-0.023169	2.498970
118.202762	1717.959918	0.780737	-0.023239	2.505473
118.614859	1728.964506	0.785742	-0.023319	2.511973
119.216832	1739.994949	0.790747	-0.023435	2.518506
119.513486	1751.010502	0.795751	-0.023493	2.524957
120.168137	1762.054668	0.800756	-0.023619	2.531474
120.603106	1773.053623	0.805761	-0.023703	2.537908
121.136899	1784.075791	0.810765	-0.023806	2.544357
121.184161	1795.150885	0.815770	-0.023817	2.550729
121.488286	1806.139611	0.820775	-0.023877	2.557084
121.882708	1817.151629	0.825780	-0.023954	2.563453
122.577502	1828.154693	0.830784	-0.024087	2.569856
122.629866	1839.303384	0.835789	-0.024100	2.576208
122.799931	1850.246892	0.840794	-0.024134	2.582449
123.057227	1861.231916	0.845799	-0.024185	2.588715
123.901579	1872.217598	0.850803	-0.024346	2.595072
124.076857	1883.308368	0.855808	-0.024382	2.601352
124.420307	1894.313967	0.860813	-0.024449	2.607599
124.813264	1905.323074	0.865817	-0.024526	2.613841
125.323081	1916.311087	0.870822	-0.024624	2.620078
125.659914	1927.375583	0.875827	-0.024690	2.626312
126.241173	1938.372038	0.880832	-0.024802	2.632536
126.544385	1949.422538	0.885836	-0.024861	2.638726
126.695027	1960.456853	0.890841	-0.024892	2.644866
126.869824	1971.468904	0.895846	-0.024928	2.650984
132.065725	1981.690623	0.900850	-0.025905	2.657531
136.937356	1993.325732	0.905855	-0.026822	2.664779
137.944924	2004.456382	0.910860	-0.027014	2.671059
138.652359	2015.522863	0.915865	-0.027150	2.677237
138.861513	2026.573163	0.920869	-0.027192	2.683306
139.176767	2037.579627	0.925874	-0.027254	2.689355
139.968508	2048.530908	0.930879	-0.027405	2.695442
140.578284	2059.577520	0.935884	-0.027522	2.701536
141.366692	2070.572158	0.940888	-0.027673	2.707618
141.714648	2081.640410	0.945893	-0.027741	2.713652
142.175175	2092.646658	0.950898	-0.027830	2.719657
142.407352	2103.685670	0.955902	-0.027876	2.725628
142.986978	2114.677897	0.960907	-0.027988	2.731620
143.395098	2125.721972	0.965912	-0.028067	2.737597
143.694955	2136.743285	0.970917	-0.028126	2.743530
143.893243	2147.753197	0.975921	-0.028166	2.749428
144.859093	2158.710144	0.980926	-0.028350	2.755413
145.643558	2169.747698	0.985931	-0.028500	2.761397
146.651417	2180.765178	0.990936	-0.028692	2.767394
147.022440	2191.847461	0.995940	-0.028764	2.773307
147.446596	2202.825186	1.000945	-0.028846	2.779161
148.214528	2213.831783	1.005950	-0.028993	2.785074
148.726780	2224.885161	1.010954	-0.029092	2.790957
149.135689	2235.902127	1.015959	-0.029171	2.796792
149.598844	2246.936513	1.020964	-0.029261	2.802632
149.875194	2257.952395	1.025969	-0.029316	2.808420
150.228799	2268.984797	1.030973	-0.029385	2.814218
150.443108	2279.999897	1.035978	-0.029428	2.819971
150.782749	2291.005581	1.040983	-0.029494	2.825729
151.225747	2302.027532	1.045988	-0.029580	2.831499
151.947766	2312.995948	1.050992	-0.029718	2.837274
152.258491	2324.076377	1.055997	-0.029779	2.843030
152.757660	2335.055825	1.061002	-0.029875	2.848752
153.383709	2346.084035	1.066006	-0.029996	2.854508
154.106121	2357.079939	1.071011	-0.030134	2.860250
154.670043	2368.132892	1.076016	-0.030243	2.865985
155.030710	2379.182257	1.081021	-0.030313	2.871674
155.366187	2390.161587	1.086025	-0.030379	2.877313
155.969167	2401.187861	1.091030	-0.030494	2.883006
156.258804	2412.211838	1.096035	-0.030552	2.888638
156.939375	2423.216414	1.101039	-0.030682	2.894309
157.261805	2434.271864	1.106044	-0.030745	2.899940
157.776530	2445.253804	1.111049	-0.030845	2.905552
158.250620	2456.285529	1.116054	-0.030936	2.911172
158.537295	2467.308514	1.121058	-0.030993	2.916748
159.020550	2478.320456	1.126063	-0.031086	2.922337
159.614890	2489.323340	1.131068	-0.031200	2.927928
160.068691	2500.354385	1.136073	-0.031288	2.933501
160.643956	2511.361229	1.141077	-0.031399	2.939070
161.043326	2522.387083	1.146082	-0.031477	2.944611
161.564739	2533.422962	1.151087	-0.031577	2.950165
161.729576	2544.457070	1.156091	-0.031611	2.955654
162.317585	2555.450109	1.161096	-0.031724	2.961175
162.520494	2566.475077	1.166101	-0.031765	2.966645
163.235179	2577.475077	1.171106	-0.031901	2.972168
163.650907	2588.506531	1.176110	-0.031982	2.977652
164.140345	2599.511715	1.181115	-0.032077	2.983123
164.524549	2610.553428	1.186120	-0.032152	2.988587
165.098641	2621.543900	1.191125	-0.032262	2.994044
165.233078	2632.604721	1.196129	-0.032290	2.999460
165.643617	2643.587946	1.201134	-0.032370	3.004869
166.134358	2654.630333	1.206139	-0.032465	3.010309
166.688883	2665.623239	1.211143	-0.032571	3.015724
167.179863	2676.642023	1.216148	-0.032666	3.021133
167.553170	2687.677561	1.221153	-0.032739	3.026522
167.891091	2698.686800	1.226158	-0.032805	3.031885
168.137757	2709.708805	1.231162	-0.032854	3.037231
168.386562	2720.734922	1.236167	-0.032904	3.042569
169.007446	2731.727620	1.241172	-0.033023	3.047936
169.628878	2742.738259	1.246177	-0.033142	3.053301
170.163255	2753.761559	1.251181	-0.033245	3.058651
170.601307	2764.788249	1.256186	-0.033330	3.063979
171.157770	2775.819748	1.261191	-0.033437	3.069316
171.785402	2786.800688	1.266195	-0.033558	3.074631
172.484186	2797.823623	1.271200	-0.033692	3.079966
173.038448	2808.868404	1.276205	-0.033798	3.085281
173.550174	2819.877444	1.281210	-0.033897	3.090564
174.034973	2830.881443	1.286214	-0.033991	3.095832
174.647155	2841.898207	1.291219	-0.034108	3.101115
175.077207	2852.929128	1.296224	-0.034192	3.106370
175.463731	2863.966774	1.301228	-0.034267	3.111613
175.827639	2874.963546	1.306233	-0.034338	3.116825
176.279367	2885.979277	1.311238	-0.034425	3.122049
176.627838	2897.031611	1.316243	-0.034494	3.127267
177.163704	2908.018966	1.321247	-0.034597	3.132472
177.503041	2919.038605	1.326252	-0.034663	3.137656
178.095066	2930.042360	1.331257	-0.034777	3.142859
178.559450	2941.062016	1.336262	-0.034867	3.148042
179.142157	2952.093998	1.341266	-0.034979	3.153239
179.468678	2963.102968	1.346271	-0.035043	3.158382
180.049279	2974.124958	1.351276	-0.035155	3.163557
180.414747	2985.161361	1.356280	-0.035226	3.168701
180.751258	2996.145200	1.361285	-0.035292	3.173808
181.200737	3007.190927	1.366290	-0.035379	3.178950
181.615692	3018.196358	1.371295	-0.035460	3.184062
182.028292	3029.203559	1.376299	-0.035540	3.189165
182.353971	3040.240409	1.381304	-0.035604	3.194262
182.637785	3051.264313	1.386309	-0.035659	3.199339
182.988979	3062.261858	1.391314	-0.035728	3.204405
183.581340	3073.286897	1.396318	-0.035842	3.209507
184.040770	3084.287502	1.401323	-0.035931	3.214573
184.218757	3095.334966	1.406328	-0.035967	3.219615
184.957902	3106.288956	1.411332	-0.036108	3.224679
185.356914	3117.358998	1.416337	-0.036186	3.229744
185.964531	3128.337677	1.421342	-0.036303	3.234787
186.214633	3139.405839	1.426347	-0.036352	3.239815
186.579271	3150.400990	1.431351	-0.036424	3.244818
187.128682	3161.408326	1.436356	-0.036529	3.249842
187.522458	3172.427146	1.441361	-0.036606	3.254844
187.807854	3183.463734	1.446366	-0.036662	3.259832
188.256302	3194.453391	1.451370	-0.036749	3.264812
188.614509	3205.505658	1.456375	-0.036819	3.269800
189.005307	3216.476293	1.461380	-0.036895	3.274749
189.538128	3227.515874	1.466384	-0.036998	3.279739
189.900738	3238.520988	1.471389	-0.037069	3.284684
190.325591	3249.591392	1.476394	-0.037151	3.289659
190.751764	3260.537814	1.481399	-0.037234	3.294571
191.067911	3271.597146	1.486403	-0.037296	3.299512
191.447207	3282.605305	1.491408	-0.037370	3.304430
191.978503	3293.609033	1.496413	-0.037472	3.309359
192.337581	3304.640983	1.501417	-0.037542	3.314271
192.538013	3315.671465	1.506422	-0.037583	3.319155
192.780846	3326.653127	1.511427	-0.037631	3.324015
193.296520	3337.694204	1.516432	-0.037730	3.328929
193.716701	3348.689308	1.521436	-0.037812	3.333803
194.148363	3359.702675	1.526441	-0.037896	3.338679
194.650889	3370.728322	1.531446	-0.037993	3.343562
195.010664	3381.764257	1.536451	-0.038063	3.348425
195.512446	3392.753726	1.541455	-0.038160	3.353278
195.892416	3403.793112	1.546460	-0.038234	3.358130
196.327924	3414.777914	1.551465	-0.038318	3.362959
196.948480	3425.822054	1.556469	-0.038437	3.367829
197.215442	3436.830461	1.561474	-0.038490	3.372633
197.505689	3447.874295	1.566479	-0.038547	3.377448
197.975200	3458.830579	1.571484	-0.038638	3.382240
198.275570	3469.897139	1.576488	-0.038697	3.387053
198.595939	3480.898763	1.581493	-0.038760	3.391833
198.815838	3491.913727	1.586498	-0.038804	3.396600
199.379283	3502.933798	1.591503	-0.038913	3.401403
199.560267	3513.965699	1.596507	-0.038949	3.406160
200.243436	3524.942211	1.601512	-0.039080	3.410945
200.503483	3535.989439	1.606517	-0.039132	3.415704
200.901680	3546.978203	1.611521	-0.039209	3.420447
201.308090	3558.046216	1.616526	-0.039288	3.425218
201.539781	3569.009779	1.621531	-0.039334	3.429918
201.863145	3580.066774	1.626536	-0.039398	3.434661
202.499676	3591.042608	1.631540	-0.039520	3.439400
202.867250	3602.078189	1.636545	-0.039592	3.444127
203.468069	3613.087130	1.641550	-0.039707	3.448863
203.839458	3624.127682	1.646555	-0.039780	3.453578
204.149697	3635.103657	1.651559	-0.039841	3.458253
204.712413	3646.124617	1.656564	-0.039949	3.462970
205.067396	3657.166993	1.661569	-0.040018	3.467665
205.394158	3668.180451	1.666573	-0.040082	3.472339
205.704749	3679.185241	1.671578	-0.040143	3.477000
206.079896	3690.195620	1.676583	-0.040216	3.481665
206.670979	3701.203848	1.681588	-0.040330	3.486347
207.062319	3712.236436	1.686592	-0.040406	3.491011
207.582744	3723.242966	1.691597	-0.040507	3.495671
207.882309	3734.279194	1.696602	-0.040565	3.500313
208.066862	3745.295714	1.701606	-0.040603	3.504928
208.491496	3756.305178	1.706611	-0.040685	3.509560
209.077947	3767.297664	1.711616	-0.040798	3.514197
209.614856	3778.361537	1.716621	-0.040901	3.518853
209.924923	3789.349121	1.721625	-0.040962	3.523444
210.174166	3800.379105	1.726630	-0.041012	3.528041
210.542487	3811.390751	1.731635	-0.041084	3.532637
210.795210	3822.403689	1.736640	-0.041134	3.537215
211.365032	3833.388722	1.741644	-0.041243	3.541811
211.721904	3844.447469	1.746649	-0.041313	3.546407
211.819386	3855.438904	1.751654	-0.041334	3.550941
212.270052	3866.452094	1.756658	-0.041421	3.555516
212.771291	3877.467821	1.761663	-0.041518	3.560093
213.277615	3888.492248	1.766668	-0.041616	3.564668
213.844900	3899.489010	1.771673	-0.041725	3.569232
214.121423	3910.531641	1.776677	-0.041780	3.573777
214.606943	3921.531132	1.781682	-0.041874	3.578321
215.109829	3932.550368	1.786687	-0.041971	3.582870
215.629529	3943.555032	1.791692	-0.042071	3.587408
216.202594	3954.564482	1.796696	-0.042181	3.591948
216.632096	3965.598951	1.801701	-0.042265	3.596477
216.991727	3976.606258	1.806706	-0.042335	3.600982
217.349425	3987.639753	1.811710	-0.042405	3.605492
217.794240	3998.654216	1.816715	-0.042491	3.609997
218.365810	4009.634532	1.821720	-0.042601	3.614496
218.623917	4020.704377	1.826725	-0.042652	3.618993
218.873925	4031.705910	1.831729	-0.042702	3.623455
219.078860	4042.741685	1.836734	-0.042743	3.627921
219.232345	4053.720168	1.841739	-0.042774	3.632352
219.718801	4064.738657	1.846744	-0.042868	3.636830
220.165821	4075.756642	1.851748	-0.042955	3.641298
220.309075	4086.804613	1.856753	-0.042984	3.645740
220.514041	4097.817172	1.861758	-0.043026	3.650168
220.735339	4108.864790	1.866762	-0.043070	3.654608
221.356448	4119.814848	1.871767	-0.043189	3.659044
221.766920	4130.907617	1.876772	-0.043269	3.663510
222.222859	4141.904333	1.881777	-0.043357	3.667937
222.417016	4152.932173	1.886781	-0.043396	3.672344
222.680466	4163.932523	1.891786	-0.043449	3.676742
223.055725	4174.936774	1.896791	-0.043522	3.681147
223.532367	4185.965938	1.901795	-0.043614	3.685568
223.917860	4196.977268	1.906800	-0.043689	3.689966
224.384532	4207.976216	1.911805	-0.043779	3.694363
224.671629	4219.004499	1.916810	-0.043836	3.698747
224.977123	4230.039763	1.921814	-0.043896	3.703131
225.437473	4241.042665	1.926819	-0.043985	3.707513
225.906933	4252.017729	1.931824	-0.044076	3.711880
226.306369	4263.081476	1.936829	-0.044153	3.716268
226.455172	4274.080993	1.941833	-0.044184	3.720601
226.905170	4285.107320	1.946838	-0.044271	3.724970
227.286153	4296.089010	1.951843	-0.044345	3.729310
227.641397	4307.130383	1.956847	-0.044415	3.733665
228.123970	4318.137003	1.961852	-0.044508	3.738013
228.406677	4329.181823	1.966857	-0.044564	3.742352
