Wed Nov 23 17:31:11 2022

Number of Points = 2200
Depth (nm)	Load (µN)	Time (s)	Depth (V)	Load (V)
-1.678886	1.057715	0.000000	0.070185	0.841972
0.000000	6.667548	0.005005	0.069868	0.852882
1.351772	15.423230	0.010009	0.069613	0.868828
2.733495	25.832581	0.015014	0.069351	0.887272
3.796620	36.912338	0.020019	0.069148	0.906242
4.650600	48.128576	0.025024	0.068985	0.924916
5.562967	59.346528	0.030028	0.068811	0.943256
6.288121	70.589135	0.035033	0.068673	0.961177
7.125385	81.784425	0.040038	0.068513	0.978760
7.693752	93.025795	0.045043	0.068403	0.995953
8.308805	104.230829	0.050047	0.068285	1.012825
8.679438	115.430802	0.055052	0.068213	1.029283
9.323137	126.559445	0.060057	0.068089	1.045523
9.808685	137.734702	0.065061	0.067995	1.061498
10.441020	148.865933	0.070066	0.067874	1.077250
10.854136	160.043903	0.075071	0.067794	1.092728
11.365818	171.174820	0.080076	0.067695	1.107975
11.707176	182.336764	0.085080	0.067628	1.122973
12.221459	193.427775	0.090085	0.067529	1.137763
12.755317	204.538165	0.095090	0.067426	1.152397
13.311823	215.665336	0.100094	0.067319	1.166880
13.678553	226.809307	0.105099	0.067247	1.181118
14.005356	237.909919	0.110104	0.067183	1.195114
18.147090	247.740060	0.115109	0.066404	1.209104
32.715121	257.503600	0.120113	0.063668	1.227468
34.044694	270.592233	0.125118	0.063415	1.243743
34.972062	282.144804	0.130123	0.063238	1.257826
35.973092	293.314106	0.135128	0.063047	1.271337
37.410166	304.312654	0.140132	0.062775	1.284691
38.190860	315.567219	0.145137	0.062626	1.297927
39.201131	326.629162	0.150142	0.062433	1.310905
39.992924	337.747458	0.155146	0.062282	1.323730
41.404323	348.678413	0.160151	0.062015	1.336473
42.232710	359.863919	0.165156	0.061856	1.349141
42.963540	370.981792	0.170161	0.061716	1.361579
43.885414	382.028493	0.175165	0.061541	1.373902
44.827095	393.097452	0.180170	0.061361	1.386147
45.357863	404.244630	0.185175	0.061259	1.398208
46.816533	415.150272	0.190180	0.060983	1.410266
47.500158	426.342355	0.195184	0.060852	1.422226
48.677241	437.315206	0.200189	0.060628	1.434044
49.584687	448.459727	0.205194	0.060455	1.445841
50.631399	459.506834	0.210198	0.060256	1.457494
51.543148	470.562663	0.215203	0.060082	1.469014
52.348911	481.674104	0.220208	0.059928	1.480461
53.038595	492.746910	0.225213	0.059796	1.491740
53.745480	503.806835	0.230217	0.059660	1.502927
54.417885	514.872468	0.235222	0.059532	1.514025
55.599669	525.828605	0.240227	0.059307	1.525113
56.283114	536.999528	0.245232	0.059176	1.536154
56.912977	548.053498	0.250236	0.059055	1.546987
57.783986	559.052239	0.255241	0.058889	1.557773
58.591743	570.130229	0.260246	0.058735	1.568538
59.312876	581.208217	0.265250	0.058597	1.579200
60.091114	592.236386	0.270255	0.058448	1.589763
60.802312	603.317579	0.275260	0.058312	1.600282
61.487685	614.367486	0.280265	0.058180	1.610696
62.186835	625.437758	0.285269	0.058046	1.621065
62.930616	636.434247	0.290274	0.057904	1.631315
63.673292	647.519169	0.295279	0.057762	1.641580
64.470732	658.534817	0.300283	0.057610	1.651737
64.841783	669.674200	0.305288	0.057537	1.661806
65.518404	680.638190	0.310293	0.057408	1.671755
66.467920	691.659705	0.315298	0.057227	1.681781
67.283433	702.731184	0.320302	0.057071	1.691749
68.137798	713.773411	0.325307	0.056908	1.701645
68.746850	724.876718	0.330312	0.056791	1.711461
69.101649	735.920830	0.335317	0.056722	1.721092
69.995756	746.890166	0.340321	0.056551	1.730769
70.837059	757.959936	0.345326	0.056391	1.740461
71.557995	768.991227	0.350331	0.056253	1.750030
72.261607	780.068841	0.355335	0.056118	1.759581
72.940167	791.099952	0.360340	0.055988	1.769034
73.665083	802.128808	0.365345	0.055849	1.778447
74.471283	813.164868	0.370350	0.055695	1.787841
75.141690	824.228174	0.375354	0.055566	1.797168
75.707196	835.272202	0.380359	0.055458	1.806401
76.575284	846.277776	0.385364	0.055292	1.815641
77.238445	857.335629	0.390369	0.055165	1.824819
77.912889	868.372737	0.395373	0.055035	1.833937
78.644359	879.419050	0.400378	0.054895	1.843033
79.437191	890.439673	0.405383	0.054744	1.852080
80.045237	901.537454	0.410387	0.054627	1.861093
80.405851	912.548406	0.415392	0.054557	1.869925
81.253608	923.554753	0.420397	0.054395	1.878846
81.859878	934.618693	0.425402	0.054278	1.887704
82.544755	945.649806	0.430406	0.054147	1.896515
83.070932	956.690921	0.435411	0.054046	1.905251
83.746300	967.717507	0.440416	0.053916	1.913975
84.165448	978.777022	0.445421	0.053835	1.922616
85.017188	989.759296	0.450425	0.053672	1.931274
85.641717	1000.836342	0.455430	0.053552	1.939905
86.185105	1011.857353	0.460435	0.053448	1.948434
86.740434	1022.910916	0.465439	0.053341	1.956953
87.138408	1033.979541	0.470444	0.053263	1.965405
87.739655	1044.969139	0.475449	0.053148	1.973815
88.643321	1055.944054	0.480454	0.052976	1.982255
89.506901	1067.016792	0.485458	0.052811	1.990722
90.032663	1078.096344	0.490463	0.052709	1.999071
90.500541	1089.107694	0.495468	0.052619	2.007321
91.278357	1100.120943	0.500472	0.052470	2.015616
91.793379	1111.163063	0.505477	0.052371	2.023832
92.680909	1122.171765	0.510482	0.052202	2.032083
92.874368	1133.295274	0.515487	0.052163	2.040211
93.518752	1144.258886	0.520491	0.052039	2.048303
93.812970	1155.328609	0.525496	0.051981	2.056353
94.592419	1166.305497	0.530501	0.051832	2.064424
95.285357	1177.335058	0.535506	0.051699	2.072479
95.698605	1188.432973	0.540510	0.051619	2.080484
96.202081	1199.418410	0.545515	0.051522	2.088400
96.675847	1210.499808	0.550520	0.051430	2.096346
97.089283	1221.454412	0.555524	0.051350	2.104159
97.980447	1232.487214	0.560529	0.051180	2.112111
98.288427	1243.568806	0.565534	0.051119	2.119929
98.990528	1254.530603	0.570539	0.050985	2.127728
99.557050	1265.612727	0.575543	0.050876	2.135549
100.205385	1276.596983	0.580548	0.050751	2.143293
100.719672	1287.664956	0.585553	0.050652	2.151036
101.346824	1298.685121	0.590558	0.050532	2.158744
101.970028	1309.702342	0.595562	0.050412	2.166421
102.355049	1320.775715	0.600567	0.050337	2.174054
102.575985	1331.802130	0.605572	0.050293	2.181591
103.108445	1342.790210	0.610576	0.050190	2.189148
103.762970	1353.811933	0.615581	0.050065	2.196728
104.366276	1364.856674	0.620586	0.049949	2.204286
104.728483	1375.901205	0.625591	0.049878	2.211763
105.600856	1386.851478	0.630595	0.049712	2.219267
106.137262	1397.922639	0.635600	0.049608	2.226750
106.652730	1408.981946	0.640605	0.049509	2.234196
107.410324	1419.932119	0.645610	0.049364	2.241598
108.251534	1431.014017	0.650614	0.049203	2.249081
108.533079	1442.072582	0.655619	0.049148	2.256400
109.014182	1453.070539	0.660624	0.049055	2.263699
109.576608	1464.084776	0.665628	0.048947	2.271004
110.140563	1475.123131	0.670633	0.048838	2.278300
110.598974	1486.137545	0.675638	0.048749	2.285535
111.178696	1497.185604	0.680643	0.048638	2.292795
111.377157	1508.222043	0.685647	0.048598	2.299942
111.942348	1519.190339	0.690652	0.048489	2.307102
112.553253	1530.248792	0.695657	0.048372	2.314306
113.300451	1541.236296	0.700661	0.048229	2.321472
113.894668	1552.293386	0.705666	0.048115	2.328627
114.622715	1563.313844	0.710671	0.047975	2.335765
114.870151	1574.372925	0.715676	0.047926	2.342805
115.342656	1585.384551	0.720680	0.047835	2.349841
115.584512	1596.416801	0.725685	0.047787	2.356821
116.302010	1607.413476	0.730690	0.047649	2.363856
116.789909	1618.441916	0.735695	0.047555	2.370842
117.377466	1629.462675	0.740699	0.047442	2.377823
117.696125	1640.509883	0.745704	0.047379	2.384746
118.226340	1651.524662	0.750709	0.047277	2.391671
118.518732	1662.558930	0.755713	0.047220	2.398539
119.034668	1673.579064	0.760718	0.047120	2.405425
119.467524	1684.592685	0.765723	0.047036	2.412269
119.841231	1695.631146	0.770728	0.046963	2.419098
120.144538	1706.648673	0.775732	0.046904	2.425880
120.583102	1717.671328	0.780737	0.046819	2.432674
121.080542	1728.680898	0.785742	0.046723	2.439452
121.747444	1739.700395	0.790747	0.046595	2.446251
122.049181	1750.745505	0.795751	0.046535	2.452974
122.298589	1761.787840	0.800756	0.046486	2.459667
122.862071	1772.750899	0.805761	0.046377	2.466355
123.398629	1783.825453	0.810765	0.046274	2.473087
123.869806	1794.798826	0.815770	0.046183	2.479727
124.568216	1805.839037	0.820775	0.046049	2.486432
125.036566	1816.887345	0.825780	0.045958	2.493080
125.547421	1827.876475	0.830784	0.045860	2.499684
126.310254	1838.875400	0.835789	0.045714	2.506324
126.784289	1849.969528	0.840794	0.045622	2.512947
126.927221	1860.985008	0.845799	0.045593	2.519443
127.407004	1871.998300	0.850803	0.045500	2.525985
127.438348	1883.039589	0.855808	0.045491	2.532441
128.008995	1894.010353	0.860813	0.045382	2.538942
128.369387	1905.051731	0.865817	0.045311	2.545427
128.972431	1916.077843	0.870822	0.045195	2.551932
129.091297	1927.127447	0.875827	0.045170	2.558344
129.557250	1938.120025	0.880832	0.045080	2.564772
129.954209	1949.150315	0.885836	0.045003	2.571192
130.266608	1960.232165	0.890841	0.044942	2.577610
130.708248	1971.170252	0.895846	0.044856	2.583953
131.314368	1982.190487	0.900850	0.044739	2.590358
131.596493	1993.243083	0.905855	0.044684	2.596706
131.962348	2004.261860	0.910860	0.044612	2.603034
132.329365	2015.267060	0.915865	0.044541	2.609340
132.960301	2026.276157	0.920869	0.044420	2.615680
133.314582	2037.318580	0.925874	0.044351	2.621973
134.141402	2048.154090	0.930879	0.044193	2.628220
137.925722	2059.090473	0.935884	0.043480	2.635039
138.927054	2070.326474	0.940888	0.043289	2.641509
139.422307	2081.357756	0.945893	0.043194	2.647759
140.063814	2092.394115	0.950898	0.043070	2.654023
140.472345	2103.401716	0.955902	0.042991	2.660214
140.927930	2114.450409	0.960907	0.042903	2.666422
141.300939	2125.465281	0.965912	0.042830	2.672583
141.716249	2136.458092	0.970917	0.042749	2.678724
142.347392	2147.487640	0.975921	0.042628	2.684909
142.946856	2158.508563	0.980926	0.042513	2.691069
143.204481	2169.549213	0.985931	0.042462	2.697167
143.673682	2180.583088	0.990936	0.042371	2.703283
143.965544	2191.565773	0.995940	0.042314	2.709328
144.777149	2202.564150	1.000945	0.042159	2.715456
145.206484	2213.626814	1.005950	0.042075	2.721540
145.682831	2224.662488	1.010954	0.041983	2.727603
145.979461	2235.656871	1.015959	0.041925	2.733601
146.488053	2246.666973	1.020964	0.041827	2.739629
146.672039	2257.719324	1.025969	0.041790	2.745611
147.182953	2268.722381	1.030973	0.041691	2.751610
147.599944	2279.721871	1.035978	0.041610	2.757577
148.146226	2290.775857	1.040983	0.041505	2.763582
148.399250	2301.796589	1.045988	0.041455	2.769508
148.876637	2312.773349	1.050992	0.041362	2.775434
149.440086	2323.820164	1.055997	0.041254	2.781399
150.013159	2334.824165	1.061002	0.041144	2.787331
150.376491	2345.864069	1.066006	0.041073	2.793233
150.717169	2356.891057	1.071011	0.041006	2.799113
151.103916	2367.897646	1.076016	0.040931	2.804977
151.584653	2378.935921	1.081021	0.040838	2.810861
151.965189	2389.940955	1.086025	0.040764	2.816698
152.368999	2400.960862	1.091030	0.040685	2.822535
152.825362	2411.950682	1.096035	0.040597	2.828353
153.426327	2422.996727	1.101039	0.040481	2.834211
153.779997	2434.029524	1.106044	0.040412	2.840010
154.364502	2445.018633	1.111049	0.040300	2.845812
154.850361	2456.076472	1.116054	0.040206	2.851621
155.180859	2467.075578	1.121058	0.040141	2.857363
155.571270	2478.083550	1.126063	0.040065	2.863108
155.848634	2489.139278	1.131068	0.040010	2.868848
156.156531	2500.146074	1.136073	0.039950	2.874556
156.748841	2511.140509	1.141077	0.039836	2.880291
156.909371	2522.197665	1.146082	0.039803	2.885979
157.422046	2533.196090	1.151087	0.039704	2.891680
157.748364	2544.221379	1.156091	0.039640	2.897355
158.117036	2555.223141	1.161096	0.039568	2.903014
158.546233	2566.252237	1.166101	0.039485	2.908684
158.852862	2577.273730	1.171106	0.039425	2.914320
159.062199	2588.294211	1.176110	0.039383	2.919930
159.647349	2599.286816	1.181115	0.039270	2.925573
160.097846	2610.339360	1.186120	0.039183	2.931215
160.546526	2621.329814	1.191125	0.039096	2.936814
160.891882	2632.348999	1.196129	0.039029	2.942401
161.438360	2643.372533	1.201134	0.038923	2.948010
161.931418	2654.382732	1.206139	0.038828	2.953593
162.290834	2665.434315	1.211143	0.038758	2.959166
162.771547	2676.412622	1.216148	0.038665	2.964711
163.091783	2687.485229	1.221153	0.038602	2.970267
163.232939	2698.478415	1.226158	0.038573	2.975747
163.745880	2709.501735	1.231162	0.038474	2.981287
164.028843	2720.481191	1.236167	0.038418	2.986761
164.602018	2731.506020	1.241172	0.038308	2.992290
164.748907	2742.567162	1.246177	0.038278	2.997764
165.494981	2753.530125	1.251181	0.038135	3.003268
165.965236	2764.592107	1.256186	0.038044	3.008769
166.316304	2775.587086	1.261191	0.037975	3.014211
166.735388	2786.625931	1.266195	0.037894	3.019673
167.082225	2797.645531	1.271200	0.037826	3.025106
167.416193	2808.665478	1.276205	0.037761	3.030527
167.589143	2819.688350	1.281210	0.037726	3.035916
167.823767	2830.694502	1.286214	0.037679	3.041296
168.377105	2841.690682	1.291219	0.037572	3.046709
168.768799	2852.730866	1.296224	0.037496	3.052109
169.205415	2863.742686	1.301228	0.037411	3.057493
169.716511	2874.736605	1.306233	0.037313	3.062869
170.254638	2885.783877	1.311238	0.037209	3.068265
170.518649	2896.792465	1.316243	0.037157	3.073594
171.140999	2907.787330	1.321247	0.037037	3.078957
171.740729	2918.832921	1.326252	0.036922	3.084333
172.360116	2929.837043	1.331257	0.036803	3.089682
172.568248	2940.883515	1.336262	0.036761	3.094983
172.835736	2951.886950	1.341266	0.036708	3.100264
173.105327	2962.922608	1.346271	0.036655	3.105550
173.359508	2973.953631	1.351276	0.036605	3.110824
173.727652	2984.921812	1.356280	0.036533	3.116074
173.988225	2995.975019	1.361285	0.036481	3.121341
174.105831	3006.994805	1.366290	0.036456	3.126563
174.323504	3018.001638	1.371295	0.036413	3.131785
174.943196	3028.980936	1.376299	0.036294	3.137040
175.451051	3040.017555	1.381304	0.036196	3.142298
175.954853	3051.051754	1.386309	0.036099	3.147545
176.385219	3062.041772	1.391314	0.036015	3.152752
176.670338	3073.101076	1.396318	0.035959	3.157963
177.223533	3084.087614	1.401323	0.035852	3.163169
177.743698	3095.113910	1.406328	0.035752	3.168379
178.256428	3106.120126	1.411332	0.035653	3.173571
178.497181	3117.161221	1.416337	0.035605	3.178733
178.906535	3128.165874	1.421342	0.035526	3.183893
179.292792	3139.198923	1.426347	0.035450	3.189054
179.692277	3150.176784	1.431351	0.035373	3.194183
180.168346	3161.235692	1.436356	0.035281	3.199352
180.465257	3172.234261	1.441361	0.035222	3.204460
180.779444	3183.271473	1.446366	0.035161	3.209580
181.037295	3194.269540	1.451370	0.035109	3.214667
181.508804	3205.267578	1.456375	0.035018	3.219773
181.920522	3216.303628	1.461380	0.034938	3.224881
182.230598	3227.343297	1.466384	0.034877	3.229969
182.695421	3238.315535	1.471389	0.034787	3.235039
182.982368	3249.358933	1.476394	0.034731	3.240109
183.394839	3260.375439	1.481399	0.034651	3.245176
183.984555	3271.385279	1.486403	0.034537	3.250255
184.486766	3282.374100	1.491408	0.034440	3.255304
184.821863	3293.434821	1.496413	0.034375	3.260357
185.177097	3304.434695	1.501417	0.034305	3.265377
185.440096	3315.481823	1.506422	0.034253	3.270398
185.605307	3326.478616	1.511427	0.034220	3.275377
185.930447	3337.499898	1.516432	0.034156	3.280379
186.467312	3348.499227	1.521436	0.034052	3.285391
186.867233	3359.530023	1.526441	0.033975	3.290392
187.327581	3370.534925	1.531446	0.033885	3.295381
187.854695	3381.535103	1.536451	0.033784	3.300369
188.306208	3392.566333	1.541455	0.033696	3.305354
188.698145	3403.599426	1.546460	0.033620	3.310324
189.007986	3414.630778	1.551465	0.033559	3.315276
189.295808	3425.611415	1.556469	0.033503	3.320194
189.794704	3436.649967	1.561474	0.033406	3.325158
190.304607	3447.650936	1.566479	0.033308	3.330099
190.664640	3458.668914	1.571484	0.033237	3.335021
191.014724	3469.710589	1.576488	0.033169	3.339945
191.300539	3480.714891	1.581493	0.033113	3.344837
191.513709	3491.745498	1.586498	0.033070	3.349725
191.841854	3502.745742	1.591503	0.033006	3.354606
192.332141	3513.737898	1.596507	0.032911	3.359497
192.843768	3524.791809	1.601512	0.032812	3.364410
192.937167	3535.824016	1.606517	0.032792	3.369254
193.278637	3546.793101	1.611521	0.032725	3.374095
193.485818	3557.831760	1.616526	0.032684	3.378943
193.896219	3568.820806	1.621531	0.032604	3.383786
194.226428	3579.891533	1.626536	0.032539	3.388649
194.469930	3590.868467	1.631540	0.032491	3.393453
194.631366	3601.899278	1.636545	0.032458	3.398264
194.999567	3612.913254	1.641550	0.032386	3.403085
195.354685	3623.932436	1.646555	0.032317	3.407901
195.864992	3634.922782	1.651559	0.032218	3.412715
196.176314	3645.964379	1.656564	0.032157	3.417521
196.429766	3656.985782	1.661569	0.032107	3.422305
196.773005	3668.002940	1.666573	0.032039	3.427091
196.998004	3679.014218	1.671578	0.031995	3.431853
197.570506	3690.007783	1.676583	0.031884	3.436642
198.092504	3701.013762	1.681588	0.031784	3.441424
198.430504	3712.081444	1.686592	0.031718	3.446204
198.693962	3723.075874	1.691597	0.031665	3.450937
198.846835	3734.093561	1.696602	0.031634	3.455660
199.263946	3745.101068	1.701606	0.031553	3.460404
199.568197	3756.132491	1.706611	0.031493	3.465138
200.121436	3767.124584	1.711616	0.031387	3.469878
200.459749	3778.161282	1.716621	0.031320	3.474605
200.787354	3789.166926	1.721625	0.031256	3.479311
201.110875	3800.203656	1.726630	0.031193	3.484023
201.440051	3811.200164	1.731635	0.031128	3.488713
202.077697	3822.197413	1.736640	0.031006	3.493432
202.338461	3833.253435	1.741644	0.030954	3.498126
202.663755	3844.246075	1.746649	0.030891	3.502794
203.025744	3855.279294	1.751654	0.030820	3.507478
203.291587	3866.278766	1.756658	0.030767	3.512129
203.743668	3877.292871	1.761663	0.030680	3.516802
204.134591	3888.326048	1.766668	0.030604	3.521470
204.412124	3899.342402	1.771673	0.030549	3.526112
204.630386	3910.346300	1.776677	0.030505	3.530735
204.841582	3921.365996	1.781682	0.030463	3.535358
205.382303	3932.349065	1.786687	0.030359	3.539997
205.600548	3943.434513	1.791692	0.030315	3.544636
205.892133	3954.410355	1.796696	0.030257	3.549232
206.097512	3965.425532	1.801701	0.030216	3.553828
206.195837	3976.477326	1.806706	0.030195	3.558421
206.526015	3987.434091	1.811710	0.030130	3.562995
207.050678	3998.489488	1.816715	0.030029	3.567626
207.477305	4009.476483	1.821720	0.029946	3.572211
207.972313	4020.505773	1.826725	0.029851	3.576815
208.314264	4031.514306	1.831729	0.029784	3.581388
208.406020	4042.550538	1.836734	0.029764	3.585939
208.755372	4053.555300	1.841739	0.029696	3.590499
209.027200	4064.570038	1.846744	0.029642	3.595049
209.500942	4075.570810	1.851748	0.029550	3.599610
209.635931	4086.646079	1.856753	0.029522	3.604158
210.020170	4097.622990	1.861758	0.029447	3.608687
210.279842	4108.698566	1.866762	0.029396	3.613238
210.666393	4119.686314	1.871767	0.029321	3.617760
211.227471	4130.697657	1.876772	0.029213	3.622305
211.705076	4141.725588	1.881777	0.029120	3.626843
211.919431	4152.755469	1.886781	0.029077	3.631347
212.164004	4163.777353	1.891786	0.029029	3.635845
212.465037	4174.764978	1.896791	0.028970	3.640329
212.883995	4185.781482	1.901795	0.028888	3.644833
213.203828	4196.805000	1.906800	0.028826	3.649323
213.526064	4207.810794	1.911805	0.028762	3.653801
213.608106	4218.869042	1.916810	0.028744	3.658268
213.860940	4229.857026	1.921814	0.028694	3.662720
214.207139	4240.886803	1.926819	0.028626	3.667193
214.476761	4251.869653	1.931824	0.028573	3.671634
214.643817	4262.926499	1.936829	0.028539	3.676088
214.891937	4273.900772	1.941833	0.028490	3.680512
215.219352	4284.951162	1.946838	0.028425	3.684970
215.503948	4295.924090	1.951843	0.028369	3.689387
215.864577	4306.963262	1.956847	0.028299	3.693832
216.226200	4317.987595	1.961852	0.028228	3.698267
216.638289	4329.007585	1.966857	0.028148	3.702700
217.090341	4339.994594	1.971862	0.028061	3.707118
217.200429	4351.037915	1.976866	0.028037	3.711518
217.742967	4362.012471	1.981871	0.027933	3.715930
218.305902	4373.055128	1.986876	0.027825	3.720365
218.591642	4384.077801	1.991881	0.027768	3.724759
218.843092	4395.089470	1.996885	0.027718	3.729140
219.230710	4406.086106	2.001890	0.027643	3.733524
219.577785	4417.122346	2.006895	0.027575	3.737914
