Wed Nov 23 19:44:20 2022

Number of Points = 2200
Depth (nm)	Load (µN)	Time (s)	Depth (V)	Load (V)
-4.151391	0.207461	0.000000	0.071875	0.834515
0.000000	5.792339	0.005005	0.071095	0.847095
2.500325	14.848802	0.010009	0.070624	0.864402
4.254316	25.563447	0.015014	0.070292	0.883686
5.776504	36.680735	0.020019	0.070003	0.903076
7.017017	47.970883	0.025024	0.069768	0.922167
8.235270	59.207078	0.030028	0.069537	0.940771
9.025991	70.546998	0.035033	0.069385	0.958928
9.892159	81.766631	0.040038	0.069220	0.976606
10.559756	93.008502	0.045043	0.069092	0.993893
13.289796	103.697726	0.050047	0.068577	1.011194
15.073173	114.976821	0.055052	0.068240	1.028546
16.464185	126.325795	0.060057	0.067976	1.045502
17.395232	137.612110	0.065061	0.067798	1.061862
18.298988	148.775645	0.070066	0.067626	1.077790
20.002359	159.728968	0.075071	0.067304	1.093600
21.581420	170.912148	0.080076	0.067005	1.109430
23.161802	182.060196	0.085080	0.066705	1.124990
24.243974	193.284983	0.090085	0.066499	1.140197
25.332859	204.427077	0.095090	0.066292	1.155101
26.565175	215.506690	0.100094	0.066058	1.169802
27.862391	226.617160	0.105099	0.065812	1.184388
29.137849	237.747023	0.110104	0.065570	1.198809
30.348107	248.855626	0.115109	0.065340	1.213004
31.312658	260.047579	0.120113	0.065157	1.227024
32.203359	271.135453	0.125118	0.064987	1.240730
33.354648	282.190538	0.130123	0.064768	1.254359
34.480976	293.307983	0.135128	0.064554	1.267902
35.224029	304.461842	0.140132	0.064412	1.281183
36.145396	315.538193	0.145137	0.064236	1.294312
37.283374	326.613035	0.150142	0.064020	1.307396
38.414798	337.670216	0.155146	0.063805	1.320328
39.926033	348.635882	0.160151	0.063518	1.333185
41.084520	359.831855	0.165156	0.063298	1.346030
41.945685	370.922097	0.170161	0.063134	1.358521
43.312901	381.962235	0.175165	0.062875	1.371041
44.109849	393.113756	0.180170	0.062722	1.383346
45.145753	404.156341	0.185175	0.062525	1.395517
46.198274	415.214167	0.190180	0.062325	1.407605
47.067928	426.333592	0.195184	0.062159	1.419584
47.855379	437.412970	0.200189	0.062009	1.431391
48.623604	448.483141	0.205194	0.061862	1.443084
49.725671	459.486022	0.210198	0.061652	1.454737
50.821486	470.557374	0.215203	0.061444	1.466363
51.711080	481.636992	0.220208	0.061274	1.477831
52.816594	492.707160	0.225213	0.061064	1.489278
53.758825	503.752626	0.230217	0.060884	1.500555
54.706432	514.822667	0.235222	0.060704	1.511773
55.807465	525.880112	0.240227	0.060495	1.522950
56.538966	536.981826	0.245232	0.060355	1.533959
57.349391	548.027412	0.250236	0.060200	1.544862
58.083187	559.104301	0.255241	0.060059	1.555692
59.200847	570.071531	0.260246	0.059847	1.566473
60.379040	581.149151	0.265250	0.059623	1.577304
61.130777	592.242985	0.270255	0.059479	1.587934
62.051453	603.291204	0.275260	0.059304	1.598506
62.880248	614.345096	0.280265	0.059146	1.608983
63.587301	625.454537	0.285269	0.059010	1.619402
64.239453	636.461902	0.290274	0.058885	1.629645
65.234374	647.493520	0.295279	0.058696	1.639955
65.959728	658.565006	0.300283	0.058557	1.650150
66.930397	669.592961	0.305288	0.058372	1.660321
67.396076	680.694581	0.310293	0.058282	1.670335
68.140869	691.712365	0.315298	0.058139	1.680304
69.077360	702.695151	0.320302	0.057961	1.690242
71.165001	713.605946	0.325307	0.057566	1.700413
72.434066	724.733364	0.330312	0.057326	1.710460
73.430043	735.870827	0.335317	0.057136	1.720373
74.337151	746.897368	0.340321	0.056963	1.730107
75.178316	757.993768	0.345326	0.056802	1.739826
75.925522	768.995173	0.350331	0.056659	1.749382
76.884656	780.036872	0.355335	0.056477	1.758983
77.706452	791.095031	0.360340	0.056320	1.768504
78.619802	802.139188	0.365345	0.056146	1.777989
79.357506	813.170507	0.370350	0.056005	1.787361
80.154891	824.227756	0.375354	0.055852	1.796723
80.967380	835.285477	0.380359	0.055697	1.806041
81.718934	846.301352	0.385364	0.055553	1.815259
82.451814	857.343527	0.390369	0.055413	1.824446
83.354662	868.367381	0.395373	0.055241	1.833619
84.115367	879.422766	0.400378	0.055095	1.842732
84.769878	890.494888	0.405383	0.054970	1.851784
85.439449	901.501281	0.410387	0.054841	1.860743
86.336836	912.526370	0.415392	0.054670	1.869737
86.954914	923.606175	0.420397	0.054552	1.878654
87.657797	934.605962	0.425402	0.054417	1.887488
88.318821	945.687101	0.430406	0.054290	1.896334
89.069917	956.675985	0.435411	0.054147	1.905090
90.046176	967.684078	0.440416	0.053961	1.913882
90.867670	978.753923	0.445421	0.053804	1.922639
91.481393	989.804535	0.450425	0.053686	1.931286
92.302256	1000.840753	0.455430	0.053529	1.939938
92.732753	1011.888773	0.460435	0.053446	1.948457
93.605247	1022.885093	0.465439	0.053279	1.957016
94.035041	1033.993563	0.470444	0.053196	1.965506
94.887754	1044.928560	0.475449	0.053033	1.973939
95.729886	1056.000937	0.480454	0.052872	1.982436
96.626435	1067.030923	0.485458	0.052701	1.990879
97.115749	1078.110169	0.490463	0.052607	1.999218
97.750993	1089.124777	0.495468	0.052485	2.007511
98.187390	1100.194089	0.500472	0.052400	2.015760
98.920050	1111.166733	0.505477	0.052260	2.023980
99.567841	1122.188695	0.510482	0.052136	2.032180
100.345122	1133.252303	0.515487	0.051987	2.040409
101.120605	1144.239739	0.520491	0.051839	2.048550
101.893141	1155.313609	0.525496	0.051691	2.056719
102.466000	1166.341707	0.530501	0.051581	2.064774
103.101563	1177.390581	0.535506	0.051459	2.072828
103.582824	1188.386660	0.540510	0.051366	2.080775
104.393813	1199.438509	0.545515	0.051211	2.088811
105.010071	1210.478809	0.550520	0.051093	2.096761
105.555406	1221.501533	0.555524	0.050988	2.104652
106.049598	1232.529250	0.560529	0.050892	2.112503
106.756617	1243.546830	0.565534	0.050757	2.120369
107.117356	1254.620261	0.570539	0.050686	2.128163
107.499254	1265.637367	0.575543	0.050612	2.135894
108.289303	1276.599903	0.580548	0.050461	2.143655
109.133088	1287.641493	0.585553	0.050300	2.151455
109.988070	1298.688323	0.590558	0.050137	2.159232
110.622214	1309.709324	0.595562	0.050015	2.166912
111.397581	1320.745962	0.600567	0.049867	2.174608
112.241927	1331.736875	0.605572	0.049706	2.182262
112.857503	1342.821412	0.610576	0.049587	2.189899
113.678372	1353.793131	0.615581	0.049431	2.197480
114.093454	1364.919484	0.620586	0.049350	2.205047
114.777149	1375.881170	0.625591	0.049219	2.212538
115.171605	1386.936928	0.630595	0.049142	2.220002
115.984977	1397.916166	0.635600	0.048987	2.227483
116.462112	1409.004573	0.640605	0.048895	2.234936
116.929804	1419.999282	0.645610	0.048804	2.242300
117.562968	1431.053788	0.650614	0.048683	2.249716
117.966972	1442.084025	0.655619	0.048604	2.257041
118.590902	1453.063451	0.660624	0.048484	2.264357
119.368475	1464.103081	0.665628	0.048336	2.271722
119.542437	1475.185687	0.670633	0.048300	2.278960
120.220052	1486.125553	0.675638	0.048170	2.286191
120.753316	1497.213590	0.680643	0.048068	2.293464
121.288275	1508.199637	0.685647	0.047965	2.300648
121.890628	1519.236948	0.690652	0.047849	2.307857
122.386692	1530.284063	0.695657	0.047753	2.315027
122.698766	1541.297275	0.700661	0.047692	2.322114
123.209856	1552.344627	0.705666	0.047593	2.329244
123.525251	1563.363393	0.710671	0.047531	2.336291
123.925739	1574.378786	0.715676	0.047453	2.343334
125.006552	1585.293853	0.720680	0.047248	2.350434
126.301635	1596.345937	0.725685	0.047002	2.357642
126.865038	1607.447977	0.730690	0.046894	2.364708
127.295394	1618.484864	0.735695	0.046810	2.371685
127.700776	1629.495359	0.740699	0.046731	2.378619
128.573737	1640.472358	0.745704	0.046565	2.385608
128.965758	1651.560280	0.750709	0.046488	2.392547
129.408513	1662.578868	0.755713	0.046403	2.399433
129.643155	1673.621358	0.760718	0.046356	2.406272
130.247648	1684.613643	0.765723	0.046240	2.413135
130.855081	1695.603699	0.770728	0.046123	2.419978
131.473474	1706.642188	0.775732	0.046004	2.426833
132.368606	1717.642278	0.780737	0.045834	2.433700
132.916776	1728.703553	0.785742	0.045728	2.440516
133.221692	1739.762567	0.790747	0.045668	2.447263
133.630071	1750.767873	0.795751	0.045589	2.453980
133.975510	1761.772812	0.800756	0.045521	2.460665
134.768773	1772.742596	0.805761	0.045370	2.467399
135.520736	1783.842754	0.810765	0.045226	2.474184
135.609715	1794.865623	0.815770	0.045206	2.480776
136.352689	1805.843445	0.820775	0.045064	2.487449
137.044276	1816.891772	0.825780	0.044932	2.494137
137.684630	1827.896032	0.830784	0.044809	2.500770
138.066794	1838.947394	0.835789	0.044734	2.507364
138.438084	1849.985196	0.840794	0.044662	2.513931
138.916148	1860.960746	0.845799	0.044570	2.520464
139.302704	1872.032793	0.850803	0.044494	2.527019
139.877259	1883.017006	0.855808	0.044384	2.533541
140.542441	1894.020324	0.860813	0.044256	2.540075
141.151466	1905.045530	0.865817	0.044139	2.546594
141.594467	1916.134367	0.870822	0.044053	2.553101
141.846721	1927.127933	0.875827	0.044003	2.559502
142.392296	1938.126578	0.880832	0.043898	2.565944
143.063250	1949.149360	0.885836	0.043770	2.572406
143.592140	1960.241660	0.890841	0.043668	2.578866
144.076902	1971.185760	0.895846	0.043574	2.585216
144.521848	1982.237889	0.900850	0.043488	2.591606
144.853503	1993.247789	0.905855	0.043423	2.597934
145.438500	2004.258170	0.910860	0.043310	2.604294
145.835031	2015.296845	0.915865	0.043233	2.610619
146.236052	2026.322409	0.920869	0.043155	2.616923
146.558714	2037.350017	0.925874	0.043092	2.623198
147.107922	2048.313396	0.930879	0.042986	2.629463
147.685441	2059.337237	0.935884	0.042875	2.635752
148.105151	2070.383848	0.940888	0.042793	2.642010
148.695103	2081.383043	0.945893	0.042680	2.648257
149.168194	2092.423244	0.950898	0.042589	2.654492
149.412886	2103.434538	0.955902	0.042540	2.660655
149.891774	2114.455811	0.960907	0.042447	2.666851
150.609403	2125.451195	0.965912	0.042310	2.673059
151.160722	2136.489667	0.970917	0.042204	2.679248
151.554796	2147.519706	0.975921	0.042127	2.685390
151.991904	2158.542533	0.980926	0.042042	2.691522
152.486638	2169.552860	0.985931	0.041947	2.697643
152.915720	2180.570753	0.990936	0.041864	2.703742
153.601888	2191.569468	0.995940	0.041732	2.709861
154.140782	2202.626679	1.000945	0.041628	2.715973
154.548424	2213.638134	1.005950	0.041549	2.722024
154.817595	2224.677334	1.010954	0.041496	2.728053
155.226177	2235.685824	1.015959	0.041416	2.734075
155.729275	2246.702108	1.020964	0.041319	2.740104
156.157714	2257.713948	1.025969	0.041236	2.746105
156.525012	2268.762650	1.030973	0.041164	2.752102
156.888619	2279.751366	1.035978	0.041094	2.758053
157.376722	2290.763217	1.040983	0.040999	2.764025
158.044764	2301.785870	1.045988	0.040871	2.770019
158.791077	2312.794070	1.050992	0.040728	2.776005
159.096731	2323.865391	1.055997	0.040668	2.781939
159.526548	2334.858280	1.061002	0.040585	2.787839
159.760813	2345.889971	1.066006	0.040538	2.793715
160.247149	2356.881948	1.071011	0.040444	2.799598
160.962879	2367.898535	1.076016	0.040307	2.805520
161.532926	2378.949573	1.081021	0.040198	2.811424
161.726717	2389.978364	1.086025	0.040158	2.817241
162.137679	2400.976433	1.091030	0.040079	2.823067
162.767099	2411.971763	1.096035	0.039958	2.828913
163.513044	2422.983238	1.101039	0.039815	2.834775
164.018264	2434.026953	1.106044	0.039718	2.840603
164.589859	2445.057162	1.111049	0.039608	2.846422
164.950634	2456.093831	1.116054	0.039537	2.852199
165.189332	2467.106438	1.121058	0.039490	2.857931
165.692315	2478.091327	1.126063	0.039392	2.863681
166.094776	2489.148112	1.131068	0.039314	2.869439
166.589093	2500.129969	1.136073	0.039219	2.875162
167.130705	2511.176393	1.141077	0.039114	2.880914
167.562788	2522.195609	1.146082	0.039031	2.886623
168.128750	2533.209462	1.151087	0.038922	2.892339
168.517484	2544.217464	1.156091	0.038846	2.898013
169.030401	2555.240105	1.161096	0.038747	2.903703
169.538447	2566.269237	1.166101	0.038649	2.909384
169.692543	2577.306856	1.171106	0.038617	2.915003
170.035029	2588.303375	1.176110	0.038550	2.920619
170.585690	2599.319098	1.181115	0.038444	2.926267
171.229432	2610.306617	1.186120	0.038321	2.931903
171.863098	2621.345202	1.191125	0.038199	2.937553
172.174730	2632.388159	1.196129	0.038138	2.943144
172.521651	2643.403067	1.201134	0.038070	2.948716
172.781215	2654.412681	1.206139	0.038019	2.954262
173.474979	2665.407704	1.211143	0.037886	2.959856
174.144997	2676.440320	1.216148	0.037757	2.965454
174.498308	2687.498901	1.221153	0.037688	2.971006
174.726372	2698.492515	1.226158	0.037643	2.976497
175.167750	2709.500119	1.231162	0.037557	2.982017
175.748804	2720.494578	1.236167	0.037445	2.987540
176.385888	2731.543126	1.241172	0.037323	2.993089
176.539605	2742.562249	1.246177	0.037292	2.998541
177.190490	2753.584407	1.251181	0.037167	3.004057
177.484447	2764.614833	1.256186	0.037109	3.009515
177.881847	2775.605765	1.261191	0.037032	3.014959
178.331147	2786.629507	1.266195	0.036945	3.020417
178.851366	2797.654297	1.271200	0.036844	3.025875
179.215381	2808.688132	1.276205	0.036773	3.031305
179.327359	2819.707926	1.281210	0.036749	3.036682
179.641164	2830.709407	1.286214	0.036688	3.042070
180.055319	2841.730347	1.291219	0.036607	3.047472
180.475170	2852.729558	1.296224	0.036526	3.052854
181.079978	2863.759357	1.301228	0.036410	3.058269
181.321804	2874.784893	1.306233	0.036362	3.063619
181.627105	2885.827918	1.311238	0.036302	3.068978
181.888377	2896.804192	1.316243	0.036250	3.074289
182.258291	2907.850129	1.321247	0.036178	3.079639
182.756339	2918.822090	1.326252	0.036081	3.084963
183.234161	2929.901937	1.331257	0.035989	3.090327
183.596853	2940.875281	1.336262	0.035918	3.095613
184.029488	2951.899515	1.341266	0.035834	3.100925
184.381492	2962.923642	1.346271	0.035766	3.106216
185.061004	2973.922654	1.351276	0.035635	3.111532
185.431010	2984.958237	1.356280	0.035563	3.116813
185.618700	2996.000754	1.361285	0.035525	3.122063
186.073684	3006.991755	1.366290	0.035437	3.127317
186.403847	3018.008713	1.371295	0.035373	3.132556
187.050635	3029.003631	1.376299	0.035248	3.137821
187.532232	3040.050370	1.381304	0.035155	3.143077
187.803254	3051.084783	1.386309	0.035102	3.148291
188.451981	3062.057502	1.391314	0.034977	3.153518
188.817523	3073.096811	1.396318	0.034906	3.158729
189.407097	3084.106454	1.401323	0.034793	3.163948
189.674649	3095.140045	1.406328	0.034740	3.169126
190.072523	3106.166586	1.411332	0.034662	3.174309
190.339189	3117.162470	1.416337	0.034610	3.179452
190.515265	3128.210313	1.421342	0.034574	3.184598
190.864305	3139.214940	1.426347	0.034506	3.189740
191.426077	3150.203390	1.431351	0.034397	3.194894
191.948027	3161.246149	1.436356	0.034297	3.200059
192.243344	3172.270820	1.441361	0.034239	3.205177
192.441047	3183.290165	1.446366	0.034199	3.210272
192.945714	3194.260533	1.451370	0.034101	3.215376
193.458662	3205.288711	1.456375	0.034002	3.220501
193.742047	3216.331893	1.461380	0.033946	3.225593
194.079333	3227.349182	1.466384	0.033880	3.230672
194.453621	3238.350859	1.471389	0.033808	3.235742
194.711661	3249.392793	1.476394	0.033756	3.240806
195.159279	3260.380361	1.481399	0.033670	3.245862
195.551700	3271.402129	1.486403	0.033593	3.250919
195.993884	3282.429879	1.491408	0.033508	3.255977
196.221658	3293.445847	1.496413	0.033462	3.260994
196.547101	3304.473736	1.501417	0.033398	3.266021
196.797873	3315.477402	1.506422	0.033349	3.271019
197.178167	3326.488022	1.511427	0.033274	3.276030
197.683098	3337.504454	1.516432	0.033177	3.281052
197.995632	3348.533575	1.521436	0.033116	3.286047
198.127168	3359.575864	1.526441	0.033088	3.291017
198.548714	3370.552072	1.531446	0.033006	3.295987
198.925684	3381.569879	1.536451	0.032933	3.300962
199.561278	3392.585478	1.541455	0.032811	3.305961
200.034481	3403.600206	1.546460	0.032719	3.310932
200.241483	3414.665650	1.551465	0.032678	3.315884
200.502970	3425.636752	1.556469	0.032626	3.320794
200.940599	3436.678479	1.561474	0.032541	3.325750
201.256453	3447.683560	1.566479	0.032479	3.330667
201.895430	3458.667234	1.571484	0.032357	3.335607
202.279310	3469.699093	1.576488	0.032282	3.340530
202.698782	3480.749571	1.581493	0.032200	3.345458
202.973567	3491.749164	1.586498	0.032146	3.350338
203.537176	3502.754501	1.591503	0.032038	3.355249
204.025567	3513.765028	1.596507	0.031943	3.360146
204.515857	3524.803673	1.601512	0.031849	3.365048
204.934320	3535.811356	1.606517	0.031767	3.369920
205.122906	3546.854336	1.611521	0.031729	3.374773
205.380648	3557.826707	1.616526	0.031678	3.379596
205.902640	3568.866905	1.621531	0.031577	3.384474
206.040147	3579.896501	1.626536	0.031549	3.389294
206.436054	3590.896108	1.631540	0.031472	3.394125
206.675858	3601.917335	1.636545	0.031424	3.398939
207.193012	3612.920093	1.641550	0.031324	3.403772
207.656374	3623.915775	1.646555	0.031235	3.408589
208.153644	3634.955574	1.651559	0.031139	3.413422
208.695896	3645.950474	1.656564	0.031034	3.418234
208.947759	3657.014007	1.661569	0.030984	3.423033
209.080454	3668.025597	1.666573	0.030957	3.427790
209.584911	3678.996512	1.671578	0.030859	3.432566
210.054413	3690.048209	1.676583	0.030768	3.437367
210.498629	3701.053588	1.681588	0.030682	3.442138
210.850836	3712.091400	1.686592	0.030613	3.446905
211.130663	3723.092517	1.691597	0.030558	3.451641
211.259535	3734.114899	1.696602	0.030531	3.456361
211.894631	3745.104225	1.701606	0.030409	3.461121
212.104737	3756.142182	1.706611	0.030367	3.465845
212.796505	3767.133151	1.711616	0.030235	3.470599
212.989055	3778.176527	1.716621	0.030196	3.475310
213.439904	3789.189059	1.721625	0.030109	3.480032
213.567611	3800.217246	1.726630	0.030082	3.484716
214.473943	3811.181822	1.731635	0.029909	3.489457
215.196727	3822.220653	1.736640	0.029771	3.494202
215.721543	3833.259030	1.741644	0.029670	3.498917
215.896861	3844.280105	1.746649	0.029634	3.503579
216.232119	3855.287148	1.751654	0.029568	3.508246
216.798411	3866.268375	1.756658	0.029459	3.512923
217.469138	3877.305545	1.761663	0.029331	3.517628
217.768630	3888.337733	1.766668	0.029272	3.522283
218.051210	3899.370730	1.771673	0.029216	3.526930
218.184600	3910.387328	1.776677	0.029188	3.531548
218.642439	3921.362506	1.781682	0.029100	3.536178
219.025566	3932.393772	1.786687	0.029025	3.540817
219.372819	3943.413549	1.791692	0.028957	3.545442
219.754828	3954.414563	1.796696	0.028883	3.550056
220.169257	3965.444808	1.801701	0.028802	3.554680
220.540324	3976.454032	1.806706	0.028730	3.559284
220.830571	3987.489112	1.811710	0.028673	3.563884
221.309269	3998.496196	1.816715	0.028580	3.568488
221.626564	4009.512997	1.821720	0.028518	3.573071
222.024415	4020.517246	1.826725	0.028440	3.577652
222.350625	4031.545368	1.831729	0.028377	3.582230
222.701386	4042.546356	1.836734	0.028308	3.586792
222.908571	4053.581183	1.841739	0.028266	3.591347
223.357144	4064.564744	1.846744	0.028180	3.595902
223.892642	4075.604945	1.851748	0.028076	3.600484
224.174734	4086.633564	1.856753	0.028021	3.605027
224.598867	4097.648338	1.861758	0.027938	3.609574
224.976962	4108.710344	1.866762	0.027865	3.614130
225.103792	4119.723352	1.871767	0.027838	3.618632
225.420509	4130.734916	1.876772	0.027776	3.623149
225.779547	4141.747710	1.881777	0.027706	3.627665
225.991121	4152.756818	1.886781	0.027663	3.632159
226.319361	4163.783437	1.891786	0.027599	3.636666
226.687280	4174.794226	1.896791	0.027527	3.641165
227.173235	4185.809315	1.901795	0.027433	3.645673
227.388277	4196.829767	1.906800	0.027390	3.650149
227.582266	4207.847056	1.911805	0.027351	3.654616
227.801078	4218.858266	1.916810	0.027307	3.659077
228.110348	4229.877870	1.921814	0.027247	3.663546
228.516694	4240.887178	1.926819	0.027168	3.668015
228.740055	4251.927331	1.931824	0.027123	3.672472
229.053488	4262.915351	1.936829	0.027062	3.676912
229.304443	4273.948161	1.941833	0.027012	3.681358
229.657868	4284.939535	1.946838	0.026943	3.685793
229.998002	4295.955762	1.951843	0.026876	3.690231
230.290356	4306.980063	1.956847	0.026819	3.694662
230.779749	4317.970237	1.961852	0.026724	3.699094
231.231042	4329.020071	1.966857	0.026637	3.703541
231.637973	4340.028395	1.971862	0.026558	3.707961
231.910303	4351.056994	1.976866	0.026504	3.712370
232.180161	4362.067306	1.981871	0.026450	3.716766
232.378843	4373.044766	1.986876	0.026410	3.721137
232.884759	4384.122789	1.991881	0.026313	3.725573
233.083031	4395.085710	1.996885	0.026273	3.729927
233.553918	4406.121462	2.001890	0.026182	3.734333
233.689278	4417.142719	2.006895	0.026154	3.738694
