Wed Nov 23 18:47:16 2022

Number of Points = 2200
Depth (nm)	Load (µN)	Time (s)	Depth (V)	Load (V)
-2.569893	0.963841	0.000000	0.024375	0.988399
0.000000	7.212873	0.005005	0.023891	0.999076
1.858208	16.503826	0.010009	0.023540	1.013686
3.805125	27.158627	0.015014	0.023172	1.030086
5.248781	38.301449	0.020019	0.022899	1.046653
6.820313	49.437657	0.025024	0.022601	1.063016
8.195782	60.606429	0.030028	0.022340	1.079076
9.728045	71.752375	0.035033	0.022050	1.094946
11.651546	82.707703	0.040038	0.021686	1.110527
15.018434	93.658812	0.045043	0.021052	1.126580
17.050975	104.963013	0.050047	0.020668	1.142227
19.719386	115.999550	0.055052	0.020164	1.157618
21.650580	127.271451	0.060057	0.019799	1.172760
23.616297	138.401707	0.065061	0.019427	1.187548
25.637513	149.516604	0.070066	0.019045	1.202159
27.687655	160.652185	0.075071	0.018658	1.216631
29.363532	171.809617	0.080076	0.018341	1.230793
31.258130	182.902750	0.085080	0.017982	1.244812
32.692548	194.076631	0.090085	0.017711	1.258571
34.374427	205.147908	0.095090	0.017392	1.272166
35.789330	216.280483	0.100094	0.017124	1.285575
37.481965	227.351827	0.105099	0.016804	1.298890
39.050384	238.492453	0.110104	0.016507	1.312095
40.512379	249.542887	0.115109	0.016229	1.325025
42.055379	260.614962	0.120113	0.015937	1.337885
43.692851	271.673887	0.125118	0.015627	1.350644
44.883443	282.850818	0.130123	0.015401	1.363235
46.080459	293.946638	0.135128	0.015174	1.375627
47.045114	305.051070	0.140132	0.014990	1.387826
48.372381	316.054761	0.145137	0.014738	1.399951
49.541679	327.174503	0.150142	0.014516	1.412032
50.948146	338.188584	0.155146	0.014249	1.423989
51.827454	349.349741	0.160151	0.014082	1.435802
52.740010	360.424712	0.165156	0.013908	1.447442
53.577526	371.518603	0.170161	0.013748	1.458981
54.518576	382.542605	0.175165	0.013568	1.470396
55.391959	393.628678	0.180170	0.013402	1.481760
56.339663	404.659548	0.185175	0.013221	1.493009
57.045845	415.789118	0.190180	0.013086	1.504185
58.145756	426.766255	0.195184	0.012877	1.515267
58.881803	437.895447	0.200189	0.012736	1.526289
60.064966	448.860515	0.205194	0.012511	1.537228
60.868461	459.996361	0.210198	0.012358	1.548122
61.908350	471.003151	0.215203	0.012160	1.558897
62.727204	482.108433	0.220208	0.012004	1.569616
63.708358	493.115723	0.225213	0.011817	1.580225
64.492211	504.213009	0.230217	0.011667	1.590780
65.725072	515.190218	0.235222	0.011433	1.601303
66.528826	526.311099	0.240227	0.011279	1.611747
67.592616	537.345786	0.245232	0.011077	1.622130
68.045913	548.458307	0.250236	0.010989	1.632320
68.929613	559.433667	0.255241	0.010821	1.642461
69.919942	570.476995	0.260246	0.010632	1.652634
71.106027	581.493502	0.265250	0.010407	1.662782
71.627611	592.646271	0.270255	0.010306	1.672780
72.748852	603.593949	0.275260	0.010093	1.682725
73.376679	614.723632	0.280265	0.009972	1.692617
74.128975	625.758155	0.285269	0.009829	1.702408
74.959543	636.773176	0.290274	0.009670	1.712148
75.674056	647.845061	0.295279	0.009533	1.721847
76.596910	658.833313	0.300283	0.009357	1.731483
77.492960	669.923725	0.305288	0.009186	1.741143
78.249415	680.961748	0.310293	0.009042	1.750665
79.027705	691.982231	0.315298	0.008893	1.760126
80.211648	702.987006	0.320302	0.008668	1.769641
81.189194	714.081133	0.325307	0.008482	1.779119
81.756121	725.141985	0.330312	0.008373	1.788401
82.684876	736.136424	0.335317	0.008196	1.797684
83.477753	747.208911	0.340321	0.008044	1.806943
84.384227	758.245397	0.345326	0.007871	1.816158
85.288437	769.229912	0.350331	0.007699	1.825283
86.420181	780.281174	0.355335	0.007484	1.834480
87.173803	791.370566	0.360340	0.007340	1.843556
88.361526	802.342714	0.365345	0.007114	1.852614
89.011846	813.462325	0.370350	0.006989	1.861596
90.162982	824.423957	0.375354	0.006771	1.870547
90.732243	835.538801	0.380359	0.006661	1.879416
91.705572	846.507020	0.385364	0.006476	1.888239
92.440112	857.613470	0.390369	0.006335	1.897064
92.974646	868.645122	0.395373	0.006232	1.905735
93.842564	879.641911	0.400378	0.006067	1.914430
94.758020	890.671070	0.405383	0.005892	1.923122
95.915832	901.659086	0.410387	0.005672	1.931807
96.784856	912.777745	0.415392	0.005506	1.940476
97.291538	923.804183	0.420397	0.005409	1.948941
98.177118	934.834465	0.425402	0.005240	1.957472
98.740747	945.880522	0.430406	0.005131	1.965893
99.690512	956.873885	0.435411	0.004950	1.974338
100.325340	967.943305	0.440416	0.004828	1.982723
101.036398	978.963165	0.445421	0.004692	1.991055
101.659345	990.012828	0.450425	0.004573	1.999352
102.282198	1001.054493	0.455430	0.004453	2.007608
103.006183	1012.077502	0.460435	0.004314	2.015842
103.988012	1023.058458	0.465439	0.004127	2.024075
104.662481	1034.140930	0.470444	0.003998	2.032273
105.260017	1045.199462	0.475449	0.003883	2.040400
106.190275	1056.175095	0.480454	0.003706	2.048518
107.004453	1067.223423	0.485458	0.003550	2.056626
107.608596	1078.279179	0.490463	0.003434	2.064657
108.630569	1089.256566	0.495468	0.003240	2.072702
109.280119	1100.329793	0.500472	0.003115	2.080693
109.761663	1111.397479	0.505477	0.003022	2.088609
110.712859	1122.352810	0.510482	0.002841	2.096529
111.725422	1133.371392	0.515487	0.002648	2.104477
112.400536	1144.433103	0.520491	0.002519	2.112345
113.337476	1155.466969	0.525496	0.002340	2.120226
113.738351	1166.529386	0.530501	0.002262	2.127971
114.512285	1177.520688	0.535506	0.002114	2.135726
115.014411	1188.582077	0.540510	0.002017	2.143438
115.712360	1199.584699	0.545515	0.001884	2.151127
116.301835	1210.634444	0.550520	0.001770	2.158795
117.053725	1221.652320	0.555524	0.001627	2.166452
117.331636	1232.736854	0.560529	0.001572	2.174018
118.110466	1243.687538	0.565534	0.001423	2.181582
118.842285	1254.735606	0.570539	0.001283	2.189174
119.615360	1265.735650	0.575543	0.001135	2.196716
120.220085	1276.808433	0.580548	0.001019	2.204244
120.846645	1287.823704	0.585553	0.000899	2.211712
121.411152	1298.855031	0.590558	0.000790	2.219151
121.902124	1309.884490	0.595562	0.000695	2.226548
122.545894	1320.905382	0.600567	0.000571	2.233948
123.237104	1331.924430	0.605572	0.000439	2.241333
123.797800	1342.954515	0.610576	0.000331	2.248672
124.679111	1353.984430	0.615581	0.000163	2.256056
125.257514	1364.995342	0.620586	0.000052	2.263338
125.972169	1376.023672	0.625591	-0.000085	2.270638
126.586004	1387.075664	0.630595	-0.000203	2.277907
127.092911	1398.081895	0.635600	-0.000301	2.285100
127.761374	1409.098509	0.640605	-0.000429	2.292312
128.353842	1420.158176	0.645610	-0.000543	2.299512
128.884784	1431.145991	0.650614	-0.000645	2.306631
129.645806	1442.185770	0.655619	-0.000791	2.313809
129.901120	1453.254058	0.660624	-0.000841	2.320877
130.607646	1464.226906	0.665628	-0.000977	2.327957
130.956380	1475.293491	0.670633	-0.001045	2.335000
131.659590	1486.274509	0.675638	-0.001180	2.342041
132.413522	1497.299119	0.680643	-0.001324	2.349099
133.020767	1508.323247	0.685647	-0.001440	2.356105
133.416475	1519.390335	0.690652	-0.001517	2.363073
134.053784	1530.389458	0.695657	-0.001640	2.370028
134.551258	1541.404895	0.700661	-0.001736	2.376944
135.242481	1552.436163	0.705666	-0.001868	2.383889
135.810610	1563.458395	0.710671	-0.001978	2.390783
136.517264	1574.456741	0.715676	-0.002113	2.397670
137.192261	1585.516122	0.720680	-0.002242	2.404568
137.925575	1596.507599	0.725685	-0.002383	2.411416
138.219058	1607.594429	0.730690	-0.002440	2.418215
138.729510	1618.586268	0.735695	-0.002539	2.424981
139.215612	1629.621964	0.740699	-0.002633	2.431749
139.666085	1640.621218	0.745704	-0.002720	2.438469
140.342826	1651.644247	0.750709	-0.002850	2.445229
140.752904	1662.693725	0.755713	-0.002929	2.451934
141.361200	1673.687591	0.760718	-0.003046	2.458626
142.078869	1684.687618	0.765723	-0.003184	2.465324
142.754465	1695.763375	0.770728	-0.003313	2.472041
143.182978	1706.771294	0.775732	-0.003396	2.478652
143.781521	1717.773421	0.780737	-0.003511	2.485274
144.289353	1728.819918	0.785742	-0.003609	2.491888
144.746726	1739.854455	0.790747	-0.003698	2.498466
145.265068	1750.864046	0.795751	-0.003798	2.505025
145.870941	1761.878844	0.800756	-0.003914	2.511586
146.497604	1772.883104	0.805761	-0.004035	2.518127
147.238308	1783.913233	0.810765	-0.004176	2.524687
147.710859	1794.964342	0.815770	-0.004268	2.531192
148.109815	1805.973625	0.820775	-0.004345	2.537643
148.669372	1816.987472	0.825780	-0.004453	2.544109
149.310439	1828.000569	0.830784	-0.004576	2.550574
149.768771	1839.045425	0.835789	-0.004665	2.557006
150.362877	1850.062722	0.840794	-0.004779	2.563432
150.865286	1861.081711	0.845799	-0.004876	2.569825
151.315990	1872.159178	0.850803	-0.004963	2.576226
151.867397	1883.139066	0.855808	-0.005070	2.582574
152.226615	1894.143457	0.860813	-0.005140	2.588885
152.878194	1905.156768	0.865817	-0.005265	2.595239
153.137480	1916.199734	0.870822	-0.005316	2.601523
153.593697	1927.231939	0.875827	-0.005404	2.607821
154.058697	1938.220504	0.880832	-0.005494	2.614080
154.578214	1949.243143	0.885836	-0.005595	2.620354
155.100823	1960.261742	0.890841	-0.005695	2.626611
155.770297	1971.309752	0.895846	-0.005824	2.632895
156.071024	1982.307229	0.900850	-0.005883	2.639070
156.572503	1993.349096	0.905855	-0.005980	2.645291
157.251069	2004.336168	0.910860	-0.006110	2.651498
158.119965	2015.359494	0.915865	-0.006276	2.657744
158.468053	2026.393985	0.920869	-0.006344	2.663890
159.109633	2037.429446	0.925874	-0.006467	2.670074
159.848677	2048.393238	0.930879	-0.006608	2.676220
160.259165	2059.457055	0.935884	-0.006688	2.682350
160.558601	2070.470326	0.940888	-0.006747	2.688420
161.123469	2081.478255	0.945893	-0.006855	2.694518
161.503951	2092.506910	0.950898	-0.006930	2.700582
161.833297	2103.527463	0.955902	-0.006994	2.706619
162.392182	2114.558377	0.960907	-0.007102	2.712687
162.795225	2125.538862	0.965912	-0.007180	2.718688
163.336655	2136.588110	0.970917	-0.007284	2.724736
163.719853	2147.638577	0.975921	-0.007359	2.730744
164.149640	2158.602560	0.980926	-0.007442	2.736700
164.716863	2169.635957	0.985931	-0.007552	2.742704
165.012940	2180.665835	0.990936	-0.007610	2.748647
165.445609	2191.688877	0.995940	-0.007694	2.754596
166.087909	2202.668306	1.000945	-0.007817	2.760544
166.599351	2213.722586	1.005950	-0.007916	2.766497
167.250391	2224.745299	1.010954	-0.008041	2.772444
167.489020	2235.785285	1.015959	-0.008088	2.778319
167.777022	2246.779614	1.020964	-0.008145	2.784165
168.246222	2257.813969	1.025969	-0.008236	2.790049
168.573162	2268.827846	1.030973	-0.008300	2.795888
169.269212	2279.826631	1.035978	-0.008433	2.801766
169.633295	2290.870706	1.040983	-0.008504	2.807601
170.308480	2301.854164	1.045988	-0.008634	2.813443
170.769351	2312.913380	1.050992	-0.008723	2.819277
171.003526	2323.917829	1.055997	-0.008769	2.825035
171.524233	2334.944238	1.061002	-0.008870	2.830837
172.038780	2345.948118	1.066006	-0.008969	2.836616
173.008323	2356.918496	1.071011	-0.009154	2.842437
173.538801	2368.002080	1.076016	-0.009256	2.848235
174.131443	2378.999194	1.081021	-0.009370	2.853987
174.621139	2390.038161	1.086025	-0.009465	2.859731
174.957012	2401.054582	1.091030	-0.009530	2.865429
175.353211	2412.094327	1.096035	-0.009607	2.871136
175.716273	2423.101789	1.101039	-0.009678	2.876810
176.184643	2434.111957	1.106044	-0.009769	2.882491
176.783393	2445.105008	1.111049	-0.009884	2.888172
177.197401	2456.171511	1.116054	-0.009964	2.893850
177.729096	2467.152594	1.121058	-0.010067	2.899493
178.198418	2478.190861	1.126063	-0.010158	2.905143
178.588370	2489.215950	1.131068	-0.010234	2.910763
179.103457	2500.214651	1.136073	-0.010333	2.916378
179.651604	2511.238750	1.141077	-0.010439	2.922000
180.124728	2522.249633	1.146082	-0.010530	2.927593
180.513748	2533.301498	1.151087	-0.010606	2.933183
180.599487	2544.331426	1.156091	-0.010625	2.938706
181.080672	2555.283915	1.161096	-0.010718	2.944239
181.628255	2566.361744	1.166101	-0.010823	2.949834
181.942954	2577.343146	1.171106	-0.010885	2.955335
182.294174	2588.395449	1.176110	-0.010953	2.960866
182.648194	2599.401662	1.181115	-0.011023	2.966365
183.169292	2610.408516	1.186120	-0.011123	2.971879
183.533921	2621.427927	1.191125	-0.011194	2.977365
183.870368	2632.432770	1.196129	-0.011260	2.982830
184.533905	2643.451735	1.201134	-0.011387	2.988340
184.913160	2654.491440	1.206139	-0.011461	2.993808
185.384221	2665.484514	1.211143	-0.011552	2.999256
185.762656	2676.524702	1.216148	-0.011626	3.004704
186.282038	2687.543624	1.221153	-0.011726	3.010153
186.643844	2698.567493	1.226158	-0.011797	3.015570
186.880024	2709.586891	1.231162	-0.011844	3.020957
187.187893	2720.594425	1.236167	-0.011904	3.026340
187.612447	2731.615358	1.241172	-0.011987	3.031736
187.885644	2742.627314	1.246177	-0.012041	3.037096
188.427446	2753.648059	1.251181	-0.012145	3.042490
188.859629	2764.679512	1.256186	-0.012229	3.047863
189.034967	2775.705466	1.261191	-0.012265	3.053187
189.324956	2786.708872	1.266195	-0.012322	3.058508
189.692558	2797.713866	1.271200	-0.012394	3.063831
190.140224	2808.759026	1.276205	-0.012480	3.069175
190.328787	2819.756249	1.281210	-0.012518	3.074450
190.643314	2830.782384	1.286214	-0.012580	3.079748
191.039909	2841.792334	1.291219	-0.012657	3.085040
191.579394	2852.810865	1.296224	-0.012761	3.090348
192.022600	2863.802936	1.301228	-0.012847	3.095620
192.343794	2874.864187	1.306233	-0.012910	3.100899
192.770641	2885.841969	1.311238	-0.012993	3.106144
193.242890	2896.889639	1.316243	-0.013084	3.111419
193.313189	2907.923125	1.321247	-0.013100	3.116623
193.768922	2918.918066	1.326252	-0.013188	3.121853
194.042907	2929.943483	1.331257	-0.013243	3.127063
194.371653	2940.955469	1.336262	-0.013307	3.132267
194.840144	2951.955748	1.341266	-0.013398	3.137475
195.030904	2963.011485	1.346271	-0.013436	3.142662
195.375495	2973.999014	1.351276	-0.013503	3.147830
195.670447	2985.019509	1.356280	-0.013562	3.152998
196.176642	2996.038273	1.361285	-0.013659	3.158185
196.741181	3007.051892	1.366290	-0.013768	3.163369
197.097607	3018.079507	1.371295	-0.013838	3.168523
197.338900	3029.095512	1.376299	-0.013886	3.173647
197.713238	3040.103651	1.381304	-0.013959	3.178778
197.958109	3051.141229	1.386309	-0.014007	3.183896
198.383330	3062.139591	1.391314	-0.014090	3.189012
198.801080	3073.150066	1.396318	-0.014171	3.194124
199.231587	3084.185816	1.401323	-0.014254	3.199241
199.660103	3095.179517	1.406328	-0.014337	3.204331
199.852951	3106.253298	1.411332	-0.014376	3.209417
200.234059	3117.199267	1.416337	-0.014451	3.214463
200.490663	3128.255079	1.421342	-0.014501	3.219533
200.669956	3139.278122	1.426347	-0.014538	3.224571
201.082490	3150.281517	1.431351	-0.014618	3.229622
201.350945	3161.301402	1.436356	-0.014671	3.234655
201.937700	3172.284960	1.441361	-0.014784	3.239704
202.231725	3183.352553	1.446366	-0.014842	3.244745
202.474252	3194.349321	1.451370	-0.014890	3.249739
202.675965	3205.374289	1.456375	-0.014931	3.254734
203.054758	3216.360015	1.461380	-0.015004	3.259725
203.482597	3227.413583	1.466384	-0.015087	3.264746
203.761502	3238.429052	1.471389	-0.015143	3.269723
204.147508	3249.415589	1.476394	-0.015218	3.274693
204.572496	3260.457671	1.481399	-0.015300	3.279685
204.843239	3271.467293	1.486403	-0.015354	3.284635
205.275823	3282.480559	1.491408	-0.015438	3.289600
205.619006	3293.501288	1.496413	-0.015505	3.294550
205.978241	3304.502732	1.501417	-0.015575	3.299485
206.320649	3315.544099	1.506422	-0.015642	3.304428
206.632725	3326.560906	1.511427	-0.015703	3.309349
206.869555	3337.570597	1.516432	-0.015750	3.314251
207.212036	3348.581000	1.521436	-0.015817	3.319158
207.396393	3359.618141	1.526441	-0.015855	3.324050
207.761890	3370.622581	1.531446	-0.015926	3.328943
208.048439	3381.632516	1.536451	-0.015982	3.333822
208.662222	3392.622617	1.541455	-0.016100	3.338725
209.068802	3403.675846	1.546460	-0.016179	3.343623
209.481183	3414.666996	1.551465	-0.016259	3.348487
209.836474	3425.707763	1.556469	-0.016329	3.353358
209.992391	3436.733736	1.561474	-0.016361	3.358192
210.108545	3447.750381	1.566479	-0.016385	3.363009
210.395358	3458.747218	1.571484	-0.016442	3.367832
211.535546	3469.694628	1.576488	-0.016658	3.372731
212.378738	3480.766775	1.581493	-0.016819	3.377640
212.833483	3491.795943	1.586498	-0.016907	3.382476
213.162280	3502.804382	1.591503	-0.016972	3.387280
213.400161	3513.844774	1.596507	-0.017019	3.392081
213.781314	3524.844406	1.601512	-0.017094	3.396875
214.216439	3535.878243	1.606517	-0.017178	3.401683
214.539011	3546.880336	1.611521	-0.017241	3.406456
214.986099	3557.875888	1.616526	-0.017328	3.411236
215.283586	3568.910675	1.621531	-0.017386	3.416007
215.657559	3579.939212	1.626536	-0.017459	3.420778
216.184893	3590.935856	1.631540	-0.017561	3.425547
216.449146	3601.967866	1.636545	-0.017613	3.430293
216.949672	3612.958058	1.641550	-0.017710	3.435042
217.247129	3624.010566	1.646555	-0.017768	3.439788
218.080962	3634.989177	1.651559	-0.017928	3.444558
218.623992	3646.025097	1.656564	-0.018032	3.449312
219.063098	3657.031061	1.661569	-0.018117	3.454035
219.860252	3668.046785	1.666573	-0.018270	3.458796
220.399298	3679.063091	1.671578	-0.018373	3.463521
220.726068	3690.094894	1.676583	-0.018438	3.468222
221.191880	3701.086038	1.681588	-0.018528	3.472915
221.732136	3712.111358	1.686592	-0.018632	3.477624
221.950465	3723.143100	1.691597	-0.018675	3.482293
222.335553	3734.170972	1.696602	-0.018750	3.486973
222.592082	3745.160608	1.701606	-0.018801	3.491616
222.971913	3756.192545	1.706611	-0.018875	3.496284
223.582850	3767.182501	1.711616	-0.018993	3.500955
224.136480	3778.218271	1.716621	-0.019099	3.505632
224.795452	3789.209195	1.721625	-0.019226	3.510296
225.038838	3800.263946	1.726630	-0.019274	3.514933
225.177422	3811.285477	1.731635	-0.019303	3.519538
225.534741	3822.286245	1.736640	-0.019373	3.524153
226.170619	3833.308234	1.741644	-0.019495	3.528803
226.369544	3844.347702	1.746649	-0.019535	3.533404
226.687154	3855.327401	1.751654	-0.019597	3.537988
226.867157	3866.368642	1.756658	-0.019633	3.542575
227.190108	3877.344937	1.761663	-0.019697	3.547146
227.415578	3888.393021	1.766668	-0.019742	3.551730
228.007946	3899.373415	1.771673	-0.019856	3.556321
228.355612	3910.414664	1.776677	-0.019924	3.560903
228.853094	3921.416498	1.781682	-0.020020	3.565480
229.240087	3932.439007	1.786687	-0.020095	3.570047
229.635823	3943.450018	1.791692	-0.020172	3.574605
230.137882	3954.470603	1.796696	-0.020269	3.579172
230.811319	3965.468250	1.801701	-0.020398	3.583743
231.064150	3976.531837	1.806706	-0.020448	3.588288
231.171600	3987.529800	1.811710	-0.020471	3.592785
231.316707	3998.552301	1.816715	-0.020501	3.597291
231.758109	4009.532802	1.821720	-0.020587	3.601806
232.014953	4020.604309	1.826725	-0.020638	3.606332
232.310892	4031.571015	1.831729	-0.020696	3.610815
232.661499	4042.619563	1.836734	-0.020764	3.615330
233.179234	4053.576137	1.841739	-0.020864	3.619821
233.525050	4064.650327	1.846744	-0.020932	3.624335
233.957275	4075.620584	1.851748	-0.021016	3.628811
234.365305	4086.663853	1.856753	-0.021095	3.633308
234.919547	4097.723636	1.861758	-0.021202	3.637821
235.095298	4108.756247	1.866762	-0.021237	3.642278
235.306327	4119.759791	1.871767	-0.021280	3.646721
235.433770	4130.791183	1.876772	-0.021306	3.651161
235.765860	4141.751860	1.881777	-0.021371	3.655589
236.384981	4152.814547	1.886781	-0.021490	3.660083
236.714691	4163.810333	1.891786	-0.021555	3.664513
236.903722	4174.851151	1.896791	-0.021593	3.668942
237.341236	4185.852112	1.901795	-0.021678	3.673375
237.388060	4196.914911	1.906800	-0.021689	3.677787
238.019288	4207.840580	1.911805	-0.021811	3.682200
238.619481	4218.899650	1.916810	-0.021926	3.686657
238.997095	4229.902418	1.921814	-0.022000	3.691063
239.390881	4240.933366	1.926819	-0.022076	3.695476
239.531003	4251.941324	1.931824	-0.022105	3.699849
239.781326	4262.959839	1.936829	-0.022155	3.704232
240.362312	4273.946850	1.941833	-0.022267	3.708632
240.776649	4285.016795	1.946838	-0.022347	3.713042
241.120037	4296.000539	1.951843	-0.022414	3.717405
241.372415	4307.037721	1.956847	-0.022464	3.721775
241.831292	4318.033893	1.961852	-0.022553	3.726145
242.302838	4329.044081	1.966857	-0.022644	3.730516
242.692867	4340.075093	1.971862	-0.022720	3.734881
242.956659	4351.082520	1.976866	-0.022773	3.739220
