Wed Nov 23 17:50:12 2022

Number of Points = 2200
Depth (nm)	Load (µN)	Time (s)	Depth (V)	Load (V)
-0.822221	1.681267	0.000000	-0.017360	1.104789
0.000000	8.204905	0.005005	-0.017516	1.113806
0.962493	17.563187	0.010009	-0.017698	1.126510
2.000653	28.274926	0.015014	-0.017896	1.140847
2.969354	39.316917	0.020019	-0.018080	1.155392
3.760265	50.463447	0.025024	-0.018232	1.169804
4.445299	61.602638	0.030028	-0.018363	1.183984
5.097598	72.705667	0.035033	-0.018488	1.197936
5.538171	83.870303	0.040038	-0.018573	1.211707
6.290473	94.910669	0.045043	-0.018717	1.225312
6.977961	106.022247	0.050047	-0.018849	1.238823
7.414560	117.165169	0.055052	-0.018934	1.252116
7.814703	128.274908	0.060057	-0.019012	1.265217
8.139647	139.375075	0.065061	-0.019075	1.278140
8.460762	150.467026	0.070066	-0.019138	1.290922
9.029990	161.562344	0.075071	-0.019248	1.303685
9.438211	172.627689	0.080076	-0.019327	1.316224
9.636240	183.741209	0.085080	-0.019367	1.328614
9.954807	194.793380	0.090085	-0.019430	1.340871
10.397960	205.825617	0.095090	-0.019516	1.353043
17.895800	214.946536	0.100094	-0.020925	1.365802
26.777139	226.775005	0.105099	-0.022594	1.381843
27.628286	238.847879	0.110104	-0.022757	1.394900
28.832277	249.976985	0.115109	-0.022985	1.406986
29.624460	261.145322	0.120113	-0.023137	1.418855
30.918434	272.111786	0.125118	-0.023382	1.430605
32.292847	283.185342	0.130123	-0.023643	1.442396
33.378864	294.293410	0.135128	-0.023850	1.454021
34.340469	305.403774	0.140132	-0.024033	1.465510
35.144649	316.473365	0.145137	-0.024186	1.476813
36.256164	327.468397	0.150142	-0.024398	1.488065
37.388121	338.554900	0.155146	-0.024613	1.499329
38.902118	349.526113	0.160151	-0.024900	1.510529
39.825879	360.689465	0.165156	-0.025076	1.521627
40.797941	371.765231	0.170161	-0.025261	1.532576
41.745039	382.796625	0.175165	-0.025441	1.543397
42.952769	393.841791	0.180170	-0.025671	1.554243
44.021368	404.880941	0.185175	-0.025874	1.564961
45.147780	415.973509	0.190180	-0.026088	1.575675
45.788362	427.070978	0.195184	-0.026211	1.586159
46.625719	438.097591	0.200189	-0.026371	1.596574
47.797709	449.107781	0.205194	-0.026593	1.607015
48.804531	460.182469	0.210198	-0.026785	1.617393
50.094435	471.180045	0.215203	-0.027030	1.627725
51.124069	482.284858	0.220208	-0.027226	1.638005
52.010399	493.336540	0.225213	-0.027395	1.648128
52.860525	504.428642	0.230217	-0.027557	1.658212
53.762843	515.381441	0.235222	-0.027729	1.668130
54.918463	526.473854	0.240227	-0.027949	1.678188
55.997329	537.475969	0.245232	-0.028154	1.688084
56.929435	548.589993	0.250236	-0.028332	1.697973
57.756881	559.611455	0.255241	-0.028490	1.707694
58.693781	570.668475	0.260246	-0.028668	1.717423
59.545028	581.698984	0.265250	-0.028831	1.727048
60.430066	592.763795	0.270255	-0.028999	1.736658
61.610127	603.745589	0.275260	-0.029223	1.746233
62.540191	614.831023	0.280265	-0.029401	1.755767
63.379772	625.866702	0.285269	-0.029561	1.765183
64.462680	636.908401	0.290274	-0.029767	1.774623
65.323776	647.952139	0.295279	-0.029931	1.783950
66.584774	658.947819	0.300283	-0.030171	1.793304
67.549216	670.025553	0.305288	-0.030354	1.802591
68.269282	681.124718	0.310293	-0.030492	1.811779
68.849226	692.152288	0.315298	-0.030604	1.820822
69.453908	703.198557	0.320302	-0.030720	1.829843
70.431273	714.166787	0.325307	-0.030906	1.838860
71.376235	725.251029	0.330312	-0.031086	1.847916
72.293869	736.260321	0.335317	-0.031261	1.856860
73.308493	747.312543	0.340321	-0.031454	1.865822
73.885716	758.373185	0.345326	-0.031565	1.874628
74.916408	769.356044	0.350331	-0.031761	1.883455
75.970285	780.391387	0.355335	-0.031962	1.892286
76.767050	791.494772	0.360340	-0.032114	1.901060
77.343209	802.514640	0.365345	-0.032225	1.909671
78.006728	813.576122	0.370350	-0.032352	1.918298
78.828330	824.554877	0.375354	-0.032509	1.926864
79.963550	835.592189	0.380359	-0.032725	1.935519
80.312505	846.681258	0.385364	-0.032793	1.943968
81.135290	857.678616	0.390369	-0.032950	1.952435
81.526182	868.755415	0.395373	-0.033026	1.960813
82.457921	879.724184	0.400378	-0.033204	1.969214
83.186560	890.798115	0.405383	-0.033343	1.977605
83.924463	901.806111	0.410387	-0.033484	1.985913
84.611795	912.839146	0.415392	-0.033616	1.994192
85.497057	923.871665	0.420397	-0.033785	2.002486
86.077857	934.930422	0.425402	-0.033897	2.010689
87.089349	945.923785	0.430406	-0.034089	2.018918
88.090593	956.930779	0.435411	-0.034280	2.027120
88.903271	968.012764	0.440416	-0.034435	2.035296
89.363358	979.066930	0.445421	-0.034524	2.043332
90.224820	990.050238	0.450425	-0.034688	2.051385
91.089156	1001.102059	0.455430	-0.034853	2.059455
91.978185	1012.087166	0.460435	-0.035023	2.067452
92.653500	1023.184222	0.465439	-0.035152	2.075445
93.382754	1034.215973	0.470444	-0.035292	2.083374
93.815970	1045.272621	0.475449	-0.035376	2.091220
94.484552	1056.289881	0.480454	-0.035504	2.099064
95.218521	1067.265273	0.485458	-0.035645	2.106866
95.979967	1078.330761	0.490463	-0.035790	2.114707
96.716069	1089.324052	0.495468	-0.035931	2.122463
97.530244	1100.375433	0.500472	-0.036086	2.130249
98.249500	1111.417847	0.505477	-0.036224	2.137978
99.073029	1122.413270	0.510482	-0.036381	2.145671
99.983618	1133.452160	0.515487	-0.036555	2.153386
100.680132	1144.500409	0.520491	-0.036688	2.161030
101.532214	1155.509582	0.525496	-0.036851	2.168656
101.910206	1166.600180	0.530501	-0.036925	2.176202
102.471603	1177.586884	0.535506	-0.037033	2.183694
103.033836	1188.639197	0.540510	-0.037141	2.191203
103.707311	1199.633057	0.545515	-0.037270	2.198673
104.432601	1210.664316	0.550520	-0.037409	2.206154
104.954366	1221.709351	0.555524	-0.037510	2.213573
105.545587	1232.740783	0.560529	-0.037623	2.220974
105.944115	1243.773815	0.565534	-0.037701	2.228308
106.876361	1254.742208	0.570539	-0.037878	2.235693
107.398586	1265.813555	0.575543	-0.037979	2.243031
108.476526	1276.787617	0.580548	-0.038184	2.250402
108.960015	1287.907982	0.585553	-0.038278	2.257715
109.270289	1298.915762	0.590558	-0.038339	2.264894
109.960660	1309.891248	0.595562	-0.038471	2.272111
110.864844	1320.908134	0.600567	-0.038643	2.279378
111.575535	1331.939977	0.605572	-0.038779	2.286589
112.219377	1343.019815	0.610576	-0.038903	2.293794
112.566733	1354.010539	0.615581	-0.038971	2.300856
113.373871	1365.024960	0.620586	-0.039125	2.308009
113.897738	1376.073287	0.625591	-0.039226	2.315101
114.579327	1387.094299	0.630595	-0.039357	2.322187
115.159955	1398.105925	0.635600	-0.039468	2.329225
116.088403	1409.115632	0.640605	-0.039645	2.336312
116.399222	1420.202817	0.645610	-0.039706	2.343298
116.970460	1431.198734	0.650614	-0.039816	2.350259
117.220893	1442.242550	0.655619	-0.039866	2.357165
118.088517	1453.225410	0.660624	-0.040031	2.364138
118.568792	1464.268817	0.665628	-0.040124	2.371049
119.305732	1475.248614	0.670633	-0.040265	2.377952
119.894190	1486.325434	0.675638	-0.040378	2.384865
120.682040	1497.309603	0.680643	-0.040529	2.391741
121.150415	1508.387596	0.685647	-0.040620	2.398590
121.436764	1519.411011	0.690652	-0.040676	2.405350
121.885470	1530.441189	0.695657	-0.040763	2.412128
122.254141	1541.463931	0.700661	-0.040835	2.418865
122.659904	1552.451114	0.705666	-0.040914	2.425570
123.423522	1563.446745	0.710671	-0.041060	2.432332
123.957283	1574.512846	0.715676	-0.041163	2.439072
125.047992	1585.464618	0.720680	-0.041370	2.445834
125.512639	1596.579958	0.725685	-0.041460	2.452552
126.192871	1607.535986	0.730690	-0.041590	2.459199
126.764749	1618.598062	0.735695	-0.041700	2.465870
127.368947	1629.626762	0.740699	-0.041816	2.472509
128.014723	1640.609657	0.745704	-0.041940	2.479110
128.684104	1651.662134	0.750709	-0.042069	2.485740
129.141762	1662.715583	0.755713	-0.042157	2.492312
129.487612	1673.743819	0.760718	-0.042225	2.498831
129.844505	1684.737515	0.765723	-0.042295	2.505314
130.339688	1695.762921	0.770728	-0.042390	2.511825
130.890185	1706.774704	0.775732	-0.042496	2.518322
131.507691	1717.795385	0.780737	-0.042615	2.524819
131.714835	1728.871355	0.785742	-0.042656	2.531255
132.237423	1739.834610	0.790747	-0.042757	2.537668
132.606438	1750.882419	0.795751	-0.042829	2.544085
133.368245	1761.871016	0.800756	-0.042975	2.550524
133.745136	1772.939169	0.805761	-0.043048	2.556922
134.288546	1783.942526	0.810765	-0.043153	2.563297
134.618573	1794.964616	0.815770	-0.043218	2.569627
135.354003	1806.004760	0.820775	-0.043358	2.576026
135.978170	1817.001129	0.825780	-0.043478	2.582364
136.515020	1828.031788	0.830784	-0.043582	2.588690
137.012220	1839.025738	0.835789	-0.043678	2.594973
137.502331	1850.072368	0.840794	-0.043772	2.601268
137.725931	1861.109265	0.845799	-0.043817	2.607495
138.454364	1872.093162	0.850803	-0.043957	2.613767
138.666207	1883.134870	0.855808	-0.043999	2.619965
139.419077	1894.119197	0.860813	-0.044143	2.626212
139.944938	1905.183328	0.865817	-0.044244	2.632447
140.425269	1916.193814	0.870822	-0.044337	2.638631
140.878614	1927.206267	0.875827	-0.044425	2.644796
141.226747	1938.258048	0.880832	-0.044493	2.650950
141.860184	1949.243684	0.885836	-0.044615	2.657102
142.589880	1960.255278	0.890841	-0.044754	2.663272
143.121246	1971.284294	0.895846	-0.044857	2.669402
143.705254	1982.315257	0.900850	-0.044969	2.675528
144.175033	1993.324670	0.905855	-0.045060	2.681608
144.861423	2004.352158	0.910860	-0.045191	2.687722
145.138544	2015.394887	0.915865	-0.045246	2.693759
145.544119	2026.396817	0.920869	-0.045325	2.699783
145.998378	2037.424706	0.925874	-0.045413	2.705816
146.506631	2048.435268	0.930879	-0.045511	2.711835
146.724732	2059.443071	0.935884	-0.045555	2.717790
147.426949	2070.455363	0.940888	-0.045689	2.723816
148.021808	2081.458928	0.945893	-0.045804	2.729805
148.474607	2092.509762	0.950898	-0.045891	2.735783
148.780694	2103.529293	0.955902	-0.045951	2.741706
149.290338	2114.529857	0.960907	-0.046050	2.747640
149.927781	2125.533114	0.965912	-0.046172	2.753584
150.416063	2136.566858	0.970917	-0.046266	2.759507
150.705742	2147.627803	0.975921	-0.046324	2.765398
151.088797	2158.634946	0.980926	-0.046398	2.771264
151.460488	2169.624282	0.985931	-0.046471	2.777106
152.018523	2180.656568	0.990936	-0.046578	2.782988
152.463308	2191.673562	0.995940	-0.046664	2.788832
153.077776	2202.691945	1.000945	-0.046782	2.794691
153.371604	2213.721788	1.005950	-0.046840	2.800492
153.903488	2224.732796	1.010954	-0.046943	2.806309
154.309637	2235.772607	1.015959	-0.047022	2.812110
155.105988	2246.726878	1.020964	-0.047174	2.817916
155.547190	2257.799542	1.025969	-0.047259	2.823714
156.265625	2268.794641	1.030973	-0.047397	2.829505
156.757125	2279.833510	1.035978	-0.047492	2.835270
157.112733	2290.855328	1.040983	-0.047561	2.840993
157.784855	2301.859450	1.045988	-0.047690	2.846745
158.242654	2312.904458	1.050992	-0.047779	2.852473
158.463232	2323.906413	1.055997	-0.047823	2.858130
158.747246	2334.945852	1.061002	-0.047879	2.863804
159.208552	2345.953671	1.066006	-0.047968	2.869479
159.641149	2356.967421	1.071011	-0.048052	2.875141
159.952892	2367.994846	1.076016	-0.048113	2.880780
160.658387	2378.985371	1.081021	-0.048248	2.886450
161.081145	2390.047141	1.086025	-0.048330	2.892101
161.603967	2401.029758	1.091030	-0.048431	2.897717
162.045976	2412.062094	1.096035	-0.048517	2.903334
162.356843	2423.084138	1.101039	-0.048578	2.908915
162.719736	2434.101871	1.106044	-0.048649	2.914491
163.145796	2445.123757	1.111049	-0.048731	2.920068
163.582682	2456.118212	1.116054	-0.048816	2.925622
164.022174	2467.186596	1.121058	-0.048901	2.931202
164.118327	2478.190475	1.126063	-0.048922	2.936688
164.679313	2489.172800	1.131068	-0.049030	2.942223
164.829336	2500.232953	1.136073	-0.049061	2.947725
165.377113	2511.218082	1.141077	-0.049167	2.953238
165.673385	2522.266937	1.146082	-0.049225	2.958735
166.179863	2533.243932	1.151087	-0.049323	2.964218
166.717267	2544.287779	1.156091	-0.049426	2.969727
167.307851	2555.299768	1.161096	-0.049540	2.975219
167.683227	2566.333880	1.166101	-0.049613	2.980679
168.195033	2577.330934	1.171106	-0.049712	2.986132
168.452689	2588.368177	1.176110	-0.049763	2.991556
168.926222	2599.369171	1.181115	-0.049854	2.996985
169.321893	2610.390259	1.186120	-0.049931	3.002402
169.747528	2621.419486	1.191125	-0.050014	3.007817
170.031985	2632.438522	1.196129	-0.050070	3.013197
170.619458	2643.444949	1.201134	-0.050183	3.018605
170.811118	2654.473075	1.206139	-0.050222	3.023957
171.259692	2665.495363	1.211143	-0.050309	3.029333
171.754093	2676.482470	1.216148	-0.050404	3.034690
172.230737	2687.549499	1.221153	-0.050496	3.040073
172.651673	2698.534638	1.226158	-0.050578	3.045398
173.236019	2709.565898	1.231162	-0.050690	3.050760
173.630928	2720.553212	1.236167	-0.050767	3.056064
173.861299	2731.620759	1.241172	-0.050813	3.061374
174.142664	2742.619109	1.246177	-0.050869	3.066649
174.582667	2753.635008	1.251181	-0.050954	3.071946
174.703101	2764.658417	1.256186	-0.050979	3.077192
175.138511	2775.668196	1.261191	-0.051064	3.082466
175.551598	2786.690693	1.266195	-0.051144	3.087735
175.958776	2797.699119	1.271200	-0.051223	3.092986
176.410668	2808.708850	1.276205	-0.051311	3.098236
176.936427	2819.731897	1.281210	-0.051412	3.103493
177.349152	2830.752945	1.286214	-0.051492	3.108725
177.771767	2841.765426	1.291219	-0.051574	3.113945
178.258883	2852.797232	1.296224	-0.051668	3.119174
178.714260	2863.805227	1.301228	-0.051756	3.124379
179.134988	2874.830179	1.306233	-0.051838	3.129578
179.563861	2885.848034	1.311238	-0.051921	3.134766
179.818751	2896.853567	1.316243	-0.051972	3.139916
180.316447	2907.885819	1.321247	-0.052068	3.145103
180.499265	2918.916262	1.326252	-0.052105	3.150237
180.780091	2929.909240	1.331257	-0.052160	3.155360
181.008478	2940.943804	1.336262	-0.052206	3.160486
181.468545	2951.944557	1.341266	-0.052295	3.165619
182.057290	2962.951961	1.346271	-0.052408	3.170764
182.706186	2973.963759	1.351276	-0.052533	3.175911
183.152991	2984.986791	1.356280	-0.052619	3.181027
183.512189	2996.026878	1.361285	-0.052689	3.186131
183.996734	3007.016558	1.366290	-0.052783	3.191221
184.484214	3018.047391	1.371295	-0.052877	3.196321
184.736492	3029.082207	1.376299	-0.052927	3.201384
185.057527	3040.121041	1.381304	-0.052990	3.206450
185.193763	3051.108675	1.386309	-0.053019	3.211460
185.661598	3062.093622	1.391314	-0.053109	3.216504
186.090561	3073.142001	1.396318	-0.053192	3.221565
186.563506	3084.155446	1.401323	-0.053284	3.226607
186.966593	3095.171425	1.406328	-0.053362	3.231633
187.295453	3106.190970	1.411332	-0.053427	3.236643
187.525241	3117.207801	1.416337	-0.053472	3.241631
187.975383	3128.223777	1.421342	-0.053560	3.246640
188.504171	3139.216567	1.426347	-0.053662	3.251640
189.019329	3150.254435	1.431351	-0.053761	3.256652
189.275411	3161.282695	1.436356	-0.053812	3.261617
189.349655	3172.320552	1.441361	-0.053828	3.266557
189.736773	3183.302642	1.446366	-0.053904	3.271504
190.202963	3194.331809	1.451370	-0.053994	3.276474
190.415597	3205.345764	1.456375	-0.054037	3.281397
191.010798	3216.366065	1.461380	-0.054151	3.286365
191.284237	3227.381693	1.466384	-0.054205	3.291282
191.632321	3238.391443	1.471389	-0.054273	3.296199
192.040329	3249.401674	1.476394	-0.054352	3.301115
192.623930	3260.406539	1.481399	-0.054465	3.306044
193.110386	3271.445301	1.486403	-0.054559	3.310969
193.429375	3282.478080	1.491408	-0.054621	3.315862
193.776397	3293.466207	1.496413	-0.054689	3.320732
194.225423	3304.500400	1.501417	-0.054776	3.325628
194.678932	3315.505807	1.506422	-0.054864	3.330504
195.040923	3326.537163	1.511427	-0.054934	3.335373
195.399012	3337.531009	1.516432	-0.055004	3.340218
195.858065	3348.570799	1.521436	-0.055093	3.345088
196.123331	3359.594061	1.526441	-0.055146	3.349921
196.429460	3370.600471	1.531446	-0.055206	3.354744
196.728954	3381.611930	1.536451	-0.055265	3.359561
197.287594	3392.619476	1.541455	-0.055372	3.364401
197.623644	3403.666761	1.546460	-0.055438	3.369224
197.945121	3414.646831	1.551465	-0.055501	3.374009
198.470097	3425.652538	1.556469	-0.055602	3.378824
198.830114	3436.701646	1.561474	-0.055673	3.383630
199.153818	3447.707985	1.566479	-0.055736	3.388406
199.628764	3458.722209	1.571484	-0.055828	3.393197
199.868760	3469.745040	1.576488	-0.055876	3.397957
200.083628	3480.779612	1.581493	-0.055919	3.402712
200.419292	3491.785338	1.586498	-0.055985	3.407462
200.964340	3502.769135	1.591503	-0.056090	3.412222
201.327860	3513.804453	1.596507	-0.056161	3.416974
201.686104	3524.837888	1.601512	-0.056230	3.421719
201.957415	3535.831013	1.606517	-0.056284	3.426430
202.279548	3546.865180	1.611521	-0.056347	3.431158
202.608502	3557.872508	1.616526	-0.056412	3.435868
202.997443	3568.891251	1.621531	-0.056487	3.440584
203.456128	3579.914396	1.626536	-0.056576	3.445303
203.837716	3590.929955	1.631540	-0.056651	3.450004
204.197529	3601.917296	1.636545	-0.056721	3.454683
204.562632	3612.974010	1.641550	-0.056792	3.459386
204.900435	3623.974194	1.646555	-0.056858	3.464056
205.505839	3634.985342	1.651559	-0.056974	3.468754
205.681556	3645.999360	1.656564	-0.057010	3.473398
206.034237	3657.032812	1.661569	-0.057079	3.478065
206.309247	3668.039947	1.666573	-0.057133	3.482705
206.665153	3679.052652	1.671578	-0.057203	3.487350
206.765832	3690.074372	1.676583	-0.057225	3.491963
207.186539	3701.094802	1.681588	-0.057306	3.496607
207.580979	3712.082658	1.686592	-0.057383	3.501227
207.900317	3723.127588	1.691597	-0.057446	3.505857
208.299101	3734.113954	1.696602	-0.057523	3.510465
208.617096	3745.171678	1.701606	-0.057586	3.515087
209.053914	3756.157773	1.706611	-0.057670	3.519687
209.668973	3767.181407	1.711616	-0.057788	3.524317
209.919006	3778.222733	1.716621	-0.057838	3.528906
210.156511	3789.222992	1.721625	-0.057885	3.533472
210.514409	3800.223423	1.726630	-0.057955	3.538045
210.864692	3811.222249	1.731635	-0.058024	3.542610
211.295937	3822.255603	1.736640	-0.058107	3.547192
211.641460	3833.296227	1.741644	-0.058175	3.551762
211.845699	3844.287979	1.746649	-0.058216	3.556291
212.083451	3855.317750	1.751654	-0.058263	3.560833
212.339828	3866.339258	1.756658	-0.058314	3.565367
212.891064	3877.322870	1.761663	-0.058420	3.569913
213.250689	3888.353847	1.766668	-0.058490	3.574451
213.660373	3899.375061	1.771673	-0.058570	3.578985
213.752472	3910.417049	1.776677	-0.058590	3.583487
214.244930	3921.418565	1.781682	-0.058685	3.588010
214.497139	3932.406775	1.786687	-0.058735	3.592496
214.963829	3943.432062	1.791692	-0.058826	3.597014
215.351813	3954.427719	1.796696	-0.058901	3.601507
215.861181	3965.479426	1.801701	-0.058999	3.606029
216.141367	3976.484756	1.806706	-0.059055	3.610502
216.515226	3987.486149	1.811710	-0.059128	3.614978
216.953864	3998.512302	1.816715	-0.059213	3.619465
217.331933	4009.534369	1.821720	-0.059286	3.623939
217.824679	4020.534678	1.826725	-0.059381	3.628410
217.954152	4031.604319	1.831729	-0.059408	3.632865
218.194053	4042.561910	1.836734	-0.059456	3.637282
218.550211	4053.580490	1.841739	-0.059526	3.641729
218.786960	4064.621587	1.846744	-0.059573	3.646168
219.333790	4075.594925	1.851748	-0.059678	3.650606
219.608339	4086.655880	1.856753	-0.059732	3.655046
219.837437	4097.682829	1.861758	-0.059778	3.659462
220.158158	4108.723664	1.866762	-0.059841	3.663887
220.532491	4119.720874	1.871767	-0.059914	3.668295
220.995330	4130.768358	1.876772	-0.060004	3.672727
221.434424	4141.782987	1.881777	-0.060089	3.677138
221.833503	4152.763267	1.886781	-0.060166	3.681526
222.140312	4163.826054	1.891786	-0.060227	3.685932
222.365118	4174.796322	1.896791	-0.060272	3.690288
222.748591	4185.820897	1.901795	-0.060346	3.694676
223.007686	4196.851546	1.906800	-0.060398	3.699048
223.445440	4207.857901	1.911805	-0.060482	3.703424
223.593413	4218.914535	1.916810	-0.060513	3.707785
223.839157	4229.877074	1.921814	-0.060562	3.712113
224.230447	4240.908232	1.926819	-0.060638	3.716479
224.626368	4251.897273	1.931824	-0.060715	3.720822
224.805799	4262.973673	1.936829	-0.060751	3.725174
225.148204	4273.953265	1.941833	-0.060818	3.729498
225.216780	4284.972307	1.946838	-0.060834	3.733806
225.485329	4295.989619	1.951843	-0.060887	3.738127
225.871248	4306.993003	1.956847	-0.060962	3.742450
226.368055	4318.028410	1.961852	-0.061058	3.746792
226.758618	4328.999718	1.966857	-0.061134	3.751093
