Wed Nov 23 17:31:11 2022

Number of Points = 2200
Depth (nm)	Load (µN)	Time (s)	Depth (V)	Load (V)
-0.887457	1.302505	0.000000	0.066961	0.853602
0.000000	7.006768	0.005005	0.066793	0.864016
1.153836	15.657986	0.010009	0.066574	0.879453
2.319280	26.053264	0.015014	0.066353	0.897515
3.503820	37.009711	0.020019	0.066128	0.916139
4.397346	48.241795	0.025024	0.065957	0.934656
5.231937	59.474000	0.030028	0.065798	0.952779
5.994894	70.694208	0.035033	0.065652	0.970504
6.666178	81.940201	0.040038	0.065523	0.987897
7.137281	93.147744	0.045043	0.065432	1.004824
8.020417	104.254465	0.050047	0.065264	1.021544
8.239713	115.539310	0.055052	0.065220	1.037898
8.823237	126.661037	0.060057	0.065107	1.053958
9.239345	137.837357	0.065061	0.065027	1.069767
9.783517	148.953400	0.070066	0.064922	1.085327
14.443955	158.798331	0.075071	0.064045	1.100999
21.669101	169.906146	0.080076	0.062686	1.119371
22.278619	182.074726	0.085080	0.062569	1.135651
23.342836	193.332175	0.090085	0.062366	1.150743
24.474047	204.453131	0.095090	0.062151	1.165496
25.873856	215.557502	0.100094	0.061886	1.180167
26.847346	226.733792	0.105099	0.061701	1.194553
27.815278	237.866140	0.110104	0.061516	1.208710
28.638634	249.002841	0.115109	0.061359	1.222643
30.038340	260.008334	0.120113	0.061094	1.236515
30.911704	271.172569	0.125118	0.060927	1.250191
32.241489	282.209010	0.130123	0.060675	1.263765
32.849501	293.430448	0.135128	0.060558	1.277103
33.854002	304.471377	0.140132	0.060367	1.290261
34.736797	315.601086	0.145137	0.060198	1.303336
35.618682	326.691051	0.150142	0.060030	1.316235
36.353714	337.757007	0.155146	0.059889	1.328923
37.333517	348.817505	0.160151	0.059703	1.341582
38.126327	359.914199	0.165156	0.059551	1.354087
39.030071	370.988245	0.170161	0.059379	1.366497
39.722383	382.059053	0.175165	0.059246	1.378708
40.749995	393.139814	0.180170	0.059051	1.390952
41.473804	404.219284	0.185175	0.058912	1.402971
42.519275	415.242299	0.190180	0.058713	1.414950
43.440829	426.334549	0.195184	0.058538	1.426854
44.431673	437.401224	0.200189	0.058349	1.438657
45.198805	448.492105	0.205194	0.058202	1.450307
46.021284	459.564188	0.210198	0.058045	1.461864
46.904827	470.599007	0.215203	0.057877	1.473314
47.792170	481.690242	0.220208	0.057707	1.484734
48.331802	492.779397	0.225213	0.057603	1.495940
49.554019	503.750052	0.230217	0.057371	1.507187
50.043898	514.913575	0.235222	0.057277	1.518281
50.870778	525.921163	0.240227	0.057119	1.529261
51.831080	536.964614	0.245232	0.056936	1.540243
52.900934	547.969363	0.250236	0.056732	1.551147
53.767591	559.093917	0.255241	0.056567	1.562019
54.671609	570.137157	0.260246	0.056395	1.572751
55.504152	581.187274	0.265250	0.056236	1.583392
56.379356	592.257123	0.270255	0.056069	1.593995
56.873412	603.348604	0.275260	0.055973	1.604421
57.618947	614.394656	0.280265	0.055831	1.614821
58.338308	625.436808	0.285269	0.055693	1.625141
59.197219	636.462494	0.290274	0.055529	1.635426
59.888837	647.487761	0.295279	0.055397	1.645592
61.033453	658.536621	0.300283	0.055179	1.655861
61.791673	669.603816	0.305288	0.055034	1.665960
62.857641	680.617517	0.310293	0.054831	1.676047
63.276848	691.750899	0.315298	0.054750	1.685977
63.998081	702.773087	0.320302	0.054612	1.695845
64.644037	713.826803	0.325307	0.054488	1.705659
65.415566	724.835684	0.330312	0.054340	1.715417
66.235220	735.861778	0.335317	0.054184	1.725149
67.242916	746.904419	0.340321	0.053992	1.734896
68.122357	757.955164	0.345326	0.053824	1.744557
68.729880	769.054920	0.350331	0.053707	1.754125
69.404748	780.066625	0.355335	0.053578	1.763586
69.961289	791.147794	0.360340	0.053471	1.773020
70.504909	802.149921	0.365345	0.053366	1.782335
71.619172	813.150303	0.370350	0.053154	1.791764
72.126639	824.264383	0.375354	0.053056	1.801063
73.114577	835.228057	0.380359	0.052868	1.810328
73.487982	846.357186	0.385364	0.052796	1.819505
74.280705	857.342102	0.390369	0.052644	1.828637
74.816901	868.414538	0.395373	0.052541	1.837723
75.560628	879.432284	0.400378	0.052398	1.846777
76.310543	890.449671	0.405383	0.052255	1.855789
77.008387	901.505360	0.410387	0.052121	1.864772
77.899217	912.495273	0.415392	0.051951	1.873714
78.871596	923.547292	0.420397	0.051766	1.882683
79.594543	934.610814	0.425402	0.051628	1.891551
80.400469	945.637661	0.430406	0.051474	1.900371
81.186443	956.654189	0.435411	0.051324	1.909137
81.907358	967.740481	0.440416	0.051186	1.917898
82.803518	978.710047	0.445421	0.051015	1.926576
83.762393	989.791432	0.450425	0.050832	1.935318
84.211536	1000.855317	0.455430	0.050745	1.943871
84.843185	1011.856046	0.460435	0.050624	1.952387
85.348345	1022.925132	0.465439	0.050526	1.960885
86.165842	1033.930537	0.470444	0.050370	1.969378
86.382680	1045.048501	0.475449	0.050327	1.977764
86.762303	1056.035704	0.480454	0.050253	1.986059
87.357529	1067.056969	0.485458	0.050138	1.994400
87.954823	1078.086858	0.490463	0.050024	2.002712
88.366956	1089.142893	0.495468	0.049944	2.010962
88.910686	1100.160475	0.500472	0.049839	2.019184
89.555215	1111.172518	0.505477	0.049715	2.027393
90.183864	1122.220281	0.510482	0.049594	2.035590
90.791165	1133.192152	0.515487	0.049478	2.043694
91.714577	1144.275203	0.520491	0.049302	2.051925
92.269618	1155.311171	0.525496	0.049195	2.059997
92.816841	1166.340938	0.530501	0.049089	2.068032
93.326413	1177.376935	0.535506	0.048991	2.076030
93.911497	1188.380295	0.540510	0.048879	2.083993
95.003038	1199.361461	0.545515	0.048671	2.092031
95.511549	1210.491279	0.550520	0.048573	2.100003
95.790606	1221.524722	0.555524	0.048518	2.107823
96.294578	1232.528637	0.560529	0.048421	2.115646
96.750083	1243.539174	0.565534	0.048332	2.123433
97.432383	1254.572816	0.570539	0.048202	2.131261
97.902532	1265.616284	0.575543	0.048111	2.139017
98.394181	1276.640600	0.580548	0.048016	2.146737
99.062718	1287.662563	0.585553	0.047887	2.154469
99.373539	1298.719449	0.590558	0.047826	2.162113
99.969680	1309.716881	0.595562	0.047712	2.169756
100.675374	1320.752971	0.600567	0.047577	2.177423
101.067011	1331.777379	0.605572	0.047500	2.184983
101.884389	1342.754951	0.610576	0.047344	2.192583
102.373577	1353.870791	0.615581	0.047250	2.200174
102.896951	1364.849058	0.620586	0.047149	2.207655
103.190232	1375.938833	0.625591	0.047091	2.215132
103.720356	1386.884741	0.630595	0.046989	2.222542
104.410236	1397.947194	0.635600	0.046857	2.230040
104.582076	1409.003414	0.640605	0.046822	2.237394
105.170346	1419.996036	0.645610	0.046709	2.244773
106.067392	1430.964079	0.650614	0.046538	2.252180
106.865432	1442.037579	0.655619	0.046385	2.259610
107.562814	1453.028887	0.660624	0.046252	2.266939
108.424546	1464.083614	0.665628	0.046087	2.274322
108.750915	1475.158848	0.670633	0.046023	2.281577
109.027213	1486.194273	0.675638	0.045969	2.288773
109.310634	1497.171332	0.680643	0.045913	2.295910
109.913998	1508.211310	0.685647	0.045797	2.303134
110.346408	1519.228748	0.690652	0.045713	2.310284
110.913426	1530.250401	0.695657	0.045604	2.317443
111.305965	1541.300550	0.700661	0.045527	2.324562
111.709407	1552.303018	0.705666	0.045449	2.331630
112.373766	1563.339080	0.710671	0.045322	2.338753
112.753068	1574.353312	0.715676	0.045248	2.345780
113.432666	1585.365975	0.720680	0.045117	2.352849
113.891054	1596.417834	0.725685	0.045029	2.359874
114.401246	1607.416946	0.730690	0.044930	2.366856
115.101748	1618.447590	0.735695	0.044796	2.373876
116.086136	1629.402823	0.740699	0.044609	2.380887
116.655195	1640.493475	0.745704	0.044499	2.387875
117.274482	1651.523771	0.750709	0.044380	2.394816
117.855262	1662.538828	0.755713	0.044268	2.401720
118.510359	1673.560476	0.760718	0.044143	2.408622
119.034734	1684.607496	0.765723	0.044042	2.415494
119.882144	1695.561374	0.770728	0.043880	2.422354
120.580982	1706.632089	0.775732	0.043746	2.429236
121.185224	1717.656918	0.780737	0.043630	2.436052
121.457649	1728.711365	0.785742	0.043576	2.442800
121.979511	1739.712739	0.790747	0.043475	2.449547
122.307607	1750.759353	0.795751	0.043411	2.456264
122.942626	1761.748023	0.800756	0.043289	2.462989
123.376309	1772.785450	0.805761	0.043205	2.469684
123.934563	1783.809664	0.810765	0.043098	2.476378
124.418691	1794.819445	0.815770	0.043004	2.483030
125.037216	1805.836446	0.820775	0.042885	2.489695
125.516408	1816.903404	0.825780	0.042793	2.496345
126.118485	1827.874358	0.830784	0.042677	2.502944
126.737448	1838.914207	0.835789	0.042558	2.509568
127.204937	1849.944251	0.840794	0.042468	2.516141
127.601684	1860.977717	0.845799	0.042390	2.522685
128.204858	1871.984164	0.850803	0.042275	2.529235
128.650834	1883.024575	0.855808	0.042188	2.535758
129.264783	1894.022488	0.860813	0.042070	2.542271
129.897166	1905.038400	0.865817	0.041949	2.548781
130.407684	1916.066308	0.870822	0.041850	2.555259
130.899158	1927.123927	0.875827	0.041755	2.561733
131.148450	1938.136326	0.880832	0.041706	2.568121
131.935558	1949.160459	0.885836	0.041555	2.574598
132.222640	1960.199862	0.890841	0.041499	2.580975
132.751447	1971.177997	0.895846	0.041397	2.587347
133.448518	1982.188787	0.900850	0.041263	2.593751
133.995030	1993.225811	0.905855	0.041158	2.600127
134.136094	2004.278332	0.910860	0.041129	2.606423
134.559446	2015.284406	0.915865	0.041047	2.612728
134.838464	2026.288019	0.920869	0.040992	2.618990
135.969171	2037.238403	0.925874	0.040777	2.625361
136.634709	2048.326705	0.930879	0.040649	2.631709
137.265423	2059.307127	0.935884	0.040528	2.637976
137.857437	2070.339441	0.940888	0.040414	2.644250
138.266040	2081.390831	0.945893	0.040335	2.650486
138.747412	2092.401524	0.950898	0.040242	2.656698
139.228029	2103.432117	0.955902	0.040149	2.662907
139.581836	2114.439690	0.960907	0.040080	2.669066
139.981459	2125.460866	0.965912	0.040002	2.675226
140.269220	2136.497561	0.970917	0.039945	2.681360
140.639758	2147.513773	0.975921	0.039873	2.687484
141.260110	2158.515738	0.980926	0.039754	2.693630
141.807248	2169.521152	0.985931	0.039649	2.699750
142.059976	2180.589311	0.990936	0.039598	2.705840
142.638954	2191.570456	0.995940	0.039487	2.711924
143.168441	2202.585745	1.000945	0.039385	2.718005
143.764719	2213.616840	1.005950	0.039270	2.724093
144.005247	2224.681010	1.010954	0.039222	2.730124
144.459385	2235.652932	1.015959	0.039135	2.736127
144.742871	2246.708445	1.020964	0.039079	2.742134
145.171495	2257.688896	1.025969	0.038995	2.748112
145.503190	2268.746957	1.030973	0.038930	2.754102
145.829905	2279.747028	1.035978	0.038866	2.760047
146.398525	2290.746286	1.040983	0.038757	2.766019
146.939754	2301.807926	1.045988	0.038653	2.772006
147.268021	2312.793372	1.050992	0.038588	2.777905
147.806493	2323.806334	1.055997	0.038485	2.783841
148.285608	2334.852576	1.061002	0.038392	2.789771
148.512054	2345.890027	1.066006	0.038347	2.795643
148.754574	2356.892038	1.071011	0.038299	2.801486
149.033800	2367.925482	1.076016	0.038243	2.807339
149.600519	2378.917219	1.081021	0.038134	2.813206
150.355614	2389.890124	1.086025	0.037990	2.819080
151.045943	2400.947000	1.091030	0.037858	2.824976
151.308223	2412.016383	1.096035	0.037806	2.830796
151.480751	2423.014311	1.101039	0.037771	2.836553
151.784711	2434.049385	1.106044	0.037711	2.842338
152.153038	2445.027149	1.111049	0.037639	2.848092
152.581040	2456.064641	1.116054	0.037556	2.853875
152.974520	2467.081874	1.121058	0.037479	2.859630
153.282241	2478.113096	1.126063	0.037419	2.865367
153.552654	2489.137009	1.131068	0.037366	2.871083
153.830941	2500.132718	1.136073	0.037311	2.876774
154.409324	2511.141687	1.141077	0.037199	2.882508
154.779076	2522.181837	1.146082	0.037127	2.888214
155.226007	2533.207690	1.151087	0.037041	2.893913
155.794015	2544.218027	1.156091	0.036931	2.899611
156.026908	2555.226262	1.161096	0.036885	2.905245
156.504001	2566.248433	1.166101	0.036793	2.910913
157.108266	2577.256187	1.171106	0.036677	2.916582
157.588882	2588.287415	1.176110	0.036584	2.922233
158.071325	2599.284258	1.181115	0.036490	2.927856
158.267563	2610.360392	1.186120	0.036451	2.933464
158.547452	2621.344772	1.191125	0.036396	2.939027
158.973162	2632.366282	1.196129	0.036313	2.944621
159.392702	2643.364314	1.201134	0.036232	2.950192
159.903869	2654.412654	1.206139	0.036133	2.955791
160.316848	2665.418397	1.211143	0.036053	2.961343
160.479778	2676.469713	1.216148	0.036019	2.966870
160.841815	2687.456281	1.221153	0.035949	2.972384
161.292659	2698.461955	1.226158	0.035861	2.977910
161.817007	2709.470756	1.231162	0.035760	2.983439
162.351438	2720.521558	1.236167	0.035657	2.988980
162.725325	2731.521612	1.241172	0.035584	2.994461
163.212860	2742.559983	1.246177	0.035490	2.999968
163.654032	2753.547330	1.251181	0.035405	3.005433
163.916504	2764.609019	1.256186	0.035353	3.010897
164.219134	2775.597962	1.261191	0.035293	3.016323
164.556050	2786.629325	1.266195	0.035227	3.021764
165.115246	2797.619283	1.271200	0.035120	3.027207
165.423811	2808.671520	1.276205	0.035059	3.032634
165.894926	2819.653368	1.281210	0.034968	3.038041
166.530925	2830.687043	1.286214	0.034846	3.043488
166.735190	2841.728499	1.291219	0.034805	3.048865
167.155756	2852.746963	1.296224	0.034723	3.054254
167.249973	2863.730716	1.301228	0.034703	3.059569
167.804196	2874.775361	1.306233	0.034596	3.064970
168.091553	2885.793643	1.311238	0.034539	3.070310
168.471147	2896.803295	1.316243	0.034465	3.075650
168.725459	2907.823499	1.321247	0.034415	3.080968
169.020166	2918.847093	1.326252	0.034357	3.086284
169.363720	2929.862420	1.331257	0.034290	3.091594
169.710525	2940.856774	1.336262	0.034222	3.096886
170.290410	2951.879972	1.341266	0.034110	3.102214
170.811698	2962.901970	1.346271	0.034010	3.107525
171.093590	2973.924651	1.351276	0.033954	3.112793
171.509992	2984.966131	1.356280	0.033873	3.118080
171.860660	2995.949054	1.361285	0.033805	3.123320
172.597471	3006.957349	1.366290	0.033664	3.128618
173.059117	3017.993267	1.371295	0.033574	3.133882
173.366277	3029.035937	1.376299	0.033514	3.139118
173.513021	3040.039438	1.381304	0.033484	3.144305
174.077037	3051.041247	1.386309	0.033375	3.149540
174.211486	3062.083299	1.391314	0.033347	3.154726
174.731092	3073.080144	1.396318	0.033247	3.159935
175.014178	3084.103388	1.401323	0.033191	3.165115
175.214373	3095.165912	1.406328	0.033151	3.170294
175.336669	3106.128393	1.411332	0.033125	3.175407
175.818088	3117.161901	1.416337	0.033032	3.180594
176.279185	3128.150410	1.421342	0.032943	3.185748
176.844464	3139.189618	1.426347	0.032834	3.190931
177.069182	3150.206592	1.431351	0.032789	3.196050
177.312211	3161.236810	1.436356	0.032741	3.201169
177.655855	3172.233278	1.441361	0.032674	3.206278
178.030793	3183.273896	1.446366	0.032601	3.211403
178.344489	3194.259771	1.451370	0.032539	3.216487
178.759040	3205.285925	1.456375	0.032459	3.221594
179.016622	3216.320166	1.461380	0.032407	3.226676
179.227310	3227.330919	1.466384	0.032365	3.231733
179.543120	3238.349977	1.471389	0.032303	3.236800
179.686829	3249.387625	1.476394	0.032274	3.241844
180.082894	3260.366344	1.481399	0.032196	3.246887
180.412228	3271.390727	1.486403	0.032132	3.251934
180.788119	3282.399170	1.491408	0.032059	3.256972
181.476972	3293.431654	1.496413	0.031927	3.262054
181.821919	3304.445362	1.501417	0.031859	3.267075
181.982974	3315.468916	1.506422	0.031826	3.272068
182.375488	3326.469426	1.511427	0.031750	3.277073
182.759422	3337.509064	1.516432	0.031675	3.282087
182.998542	3348.536467	1.521436	0.031628	3.287069
183.342869	3359.517293	1.526441	0.031560	3.292036
183.750600	3370.540902	1.531446	0.031481	3.297023
184.073131	3381.559103	1.536451	0.031418	3.301989
184.335683	3392.579820	1.541455	0.031366	3.306941
184.867144	3403.596085	1.546460	0.031263	3.311917
185.162872	3414.604569	1.551465	0.031205	3.316853
185.527824	3425.638190	1.556469	0.031134	3.321801
185.819837	3436.654414	1.561474	0.031076	3.326725
186.210183	3447.662164	1.566479	0.031000	3.331650
186.777966	3458.665243	1.571484	0.030891	3.336587
187.167050	3469.694063	1.576488	0.030815	3.341507
187.355189	3480.721282	1.581493	0.030777	3.346393
187.956532	3491.706891	1.586498	0.030662	3.351305
188.212723	3502.761206	1.591503	0.030611	3.356197
188.501950	3513.770637	1.596507	0.030554	3.361067
188.854520	3524.789868	1.601512	0.030485	3.365941
189.311519	3535.800299	1.606517	0.030397	3.370817
189.491460	3546.804989	1.611521	0.030360	3.375650
189.917028	3557.816731	1.616526	0.030278	3.380509
190.229817	3568.849151	1.621531	0.030216	3.385355
190.701413	3579.850284	1.626536	0.030125	3.390201
191.054478	3590.888602	1.631540	0.030056	3.395041
191.497269	3601.879752	1.636545	0.029970	3.399865
191.766638	3612.936147	1.641550	0.029917	3.404689
192.211899	3623.927596	1.646555	0.029831	3.409500
192.514615	3634.939344	1.651559	0.029771	3.414295
192.842068	3645.961419	1.656564	0.029707	3.419091
193.045017	3656.995528	1.661569	0.029666	3.423870
193.369237	3668.004983	1.666573	0.029603	3.428646
193.897681	3678.982804	1.671578	0.029501	3.433427
194.124939	3690.025093	1.676583	0.029455	3.438192
194.545975	3701.042308	1.681588	0.029374	3.442963
194.924707	3712.065025	1.686592	0.029300	3.447725
195.410869	3723.070687	1.691597	0.029206	3.452485
195.788584	3734.114665	1.696602	0.029132	3.457242
196.335345	3745.061546	1.701606	0.029027	3.461972
196.580214	3756.145383	1.706611	0.028978	3.466717
197.047171	3767.125352	1.711616	0.028888	3.471438
197.572563	3778.160570	1.716621	0.028787	3.476182
197.529501	3789.173842	1.721625	0.028792	3.480845
197.759927	3800.219703	1.726630	0.028746	3.485546
198.193336	3811.168804	1.731635	0.028662	3.490224
198.870735	3822.213392	1.736640	0.028532	3.494965
198.721316	3833.257737	1.741644	0.028557	3.499603
199.050151	3844.256972	1.746649	0.028493	3.504271
199.250283	3855.297447	1.751654	0.028453	3.508935
199.530486	3866.280334	1.756658	0.028397	3.513578
199.822973	3877.331290	1.761663	0.028340	3.518245
199.950321	3888.307149	1.766668	0.028313	3.522855
200.518623	3899.340329	1.771673	0.028204	3.527533
200.811816	3910.369244	1.776677	0.028146	3.532172
201.124707	3921.364133	1.781682	0.028085	3.536793
201.249342	3932.395529	1.786687	0.028058	3.541402
201.773372	3943.378948	1.791692	0.027957	3.546030
202.157020	3954.419732	1.796696	0.027883	3.550659
202.373610	3965.429361	1.801701	0.027839	3.555251
202.690833	3976.431506	1.806706	0.027777	3.559845
203.053751	3987.459979	1.811710	0.027706	3.564449
203.728612	3998.477127	1.816715	0.027577	3.569077
203.834055	4009.493804	1.821720	0.027554	3.573636
204.195177	4020.513436	1.826725	0.027484	3.578218
204.252790	4031.536539	1.831729	0.027470	3.582762
204.588558	4042.551418	1.836734	0.027405	3.587328
204.749220	4053.557619	1.841739	0.027372	3.591864
205.140504	4064.564068	1.846744	0.027296	3.596421
205.592313	4075.596852	1.851748	0.027208	3.600989
206.214781	4086.580852	1.856753	0.027089	3.605550
206.342791	4097.675482	1.861758	0.027062	3.610096
206.658675	4108.668228	1.866762	0.027000	3.614616
207.185265	4119.681712	1.871767	0.026898	3.619161
207.356577	4130.743488	1.876772	0.026863	3.623681
207.815730	4141.718068	1.881777	0.026775	3.628191
208.169270	4152.750944	1.886781	0.026705	3.632708
208.437566	4163.782745	1.891786	0.026652	3.637210
208.760857	4174.756784	1.896791	0.026589	3.641688
209.197469	4185.801116	1.901795	0.026504	3.646202
209.324963	4196.794380	1.906800	0.026478	3.650656
209.707047	4207.827583	1.911805	0.026403	3.655148
210.149110	4218.828628	1.916810	0.026318	3.659628
210.525471	4229.874852	1.921814	0.026244	3.664113
210.806636	4240.876870	1.926819	0.026189	3.668565
211.155317	4251.877846	1.931824	0.026121	3.673018
211.625955	4262.935215	1.936829	0.026030	3.677502
211.841988	4273.915013	1.941833	0.025986	3.681921
212.133127	4284.943162	1.946838	0.025929	3.686363
212.242403	4295.951210	1.951843	0.025906	3.690772
212.710951	4306.966932	1.956847	0.025815	3.695217
213.029492	4317.965799	1.961852	0.025753	3.699633
213.491484	4328.994769	1.966857	0.025663	3.704072
213.697262	4340.012302	1.971862	0.025622	3.708473
214.019900	4351.038608	1.976866	0.025559	3.712885
214.090245	4362.095961	1.981871	0.025543	3.717278
214.489225	4373.032882	1.986876	0.025465	3.721652
214.745524	4384.073773	1.991881	0.025414	3.726047
215.293115	4395.071297	1.996885	0.025309	3.730450
215.424896	4406.115705	2.001890	0.025281	3.734823
215.631185	4417.130112	2.006895	0.025240	3.739187
