Wed Nov 23 19:44:20 2022

Number of Points = 2200
Depth (nm)	Load (µN)	Time (s)	Depth (V)	Load (V)
-0.669435	1.576537	0.000000	-0.011840	1.090171
0.000000	8.238321	0.005005	-0.011967	1.099424
0.824138	17.589678	0.010009	-0.012124	1.112226
1.615333	28.333919	0.015014	-0.012275	1.126680
2.531133	39.334271	0.020019	-0.012450	1.141338
3.153925	50.486298	0.025024	-0.012570	1.155866
3.844452	61.609810	0.030028	-0.012702	1.170208
4.387651	72.724037	0.035033	-0.012807	1.184298
4.952435	83.853163	0.040038	-0.012915	1.198249
5.298875	94.995842	0.045043	-0.012983	1.211959
5.647344	106.128135	0.050047	-0.013051	1.225504
6.060949	117.172459	0.055052	-0.013132	1.238825
6.509357	128.295414	0.060057	-0.013218	1.252111
7.006419	139.349493	0.065061	-0.013314	1.265198
7.433751	150.477190	0.070066	-0.013397	1.278205
7.796030	161.545823	0.075071	-0.013468	1.290988
8.380184	172.668555	0.080076	-0.013581	1.303796
8.705511	183.735332	0.085080	-0.013644	1.316313
9.077044	194.815247	0.090085	-0.013717	1.328744
9.412720	205.884875	0.095090	-0.013782	1.341034
10.027516	216.925545	0.100094	-0.013901	1.353291
10.367902	228.036453	0.105099	-0.013967	1.365406
10.708410	239.133378	0.110104	-0.014034	1.377399
11.049956	250.183265	0.115109	-0.014101	1.389239
11.399741	261.253800	0.120113	-0.014169	1.401004
11.695986	272.338439	0.125118	-0.014227	1.412665
12.163709	283.363949	0.130123	-0.014318	1.424234
12.501442	294.460856	0.135128	-0.014384	1.435734
12.936377	305.515707	0.140132	-0.014468	1.447135
14.136315	316.253646	0.145137	-0.014696	1.458405
36.703309	323.802799	0.150142	-0.018932	1.474077
37.510930	338.170986	0.155146	-0.019088	1.488573
38.429468	349.648274	0.160151	-0.019263	1.500148
39.248093	360.764438	0.165156	-0.019419	1.511248
40.255479	371.795740	0.170161	-0.019611	1.522251
40.999468	382.900657	0.175165	-0.019753	1.533154
42.207012	393.889310	0.180170	-0.019983	1.544027
43.033581	404.984102	0.185175	-0.020140	1.554795
44.070965	416.012547	0.190180	-0.020338	1.565496
44.972096	427.107020	0.195184	-0.020510	1.576141
45.886151	438.143535	0.200189	-0.020684	1.586664
46.745564	449.216804	0.205194	-0.020848	1.597134
47.458263	460.289229	0.210198	-0.020984	1.607486
48.463841	471.281753	0.215203	-0.021176	1.617794
49.242883	482.380348	0.220208	-0.021325	1.628059
49.955615	493.422315	0.225213	-0.021461	1.638188
50.751024	504.480068	0.230217	-0.021613	1.648294
51.612779	515.487593	0.235222	-0.021778	1.658314
52.646563	526.510798	0.240227	-0.021974	1.668342
53.447497	537.607471	0.245232	-0.022127	1.678300
54.405648	548.616402	0.250236	-0.022310	1.688172
55.158975	559.717169	0.255241	-0.022454	1.698003
55.950950	570.746358	0.260246	-0.022605	1.707727
56.743440	581.770467	0.265250	-0.022757	1.717392
57.526212	592.829674	0.270255	-0.022906	1.727029
58.437767	603.865301	0.275260	-0.023080	1.736630
59.305192	614.889875	0.280265	-0.023246	1.746156
60.155919	625.951186	0.285269	-0.023408	1.755655
60.935640	636.997619	0.290274	-0.023557	1.765070
61.713758	648.037695	0.295279	-0.023706	1.774429
62.457886	659.095794	0.300283	-0.023848	1.783743
63.229912	670.092904	0.305288	-0.023996	1.792967
64.067654	681.182994	0.310293	-0.024156	1.802238
64.689728	692.209309	0.315298	-0.024275	1.811348
65.347831	703.257545	0.320302	-0.024401	1.820440
66.058813	714.286579	0.325307	-0.024537	1.829485
66.680354	725.342622	0.330312	-0.024657	1.838483
67.260826	736.393228	0.335317	-0.024768	1.847421
68.159812	747.379243	0.340321	-0.024940	1.856352
68.793430	758.444016	0.345326	-0.025061	1.865229
69.623869	769.463026	0.350331	-0.025220	1.874082
70.145012	780.526299	0.355335	-0.025321	1.882844
71.063120	791.521350	0.360340	-0.025496	1.891618
71.748977	802.588269	0.365345	-0.025627	1.900345
72.456289	813.609972	0.370350	-0.025762	1.909003
73.266680	824.632394	0.375354	-0.025917	1.917649
74.235609	835.649542	0.380359	-0.026102	1.926294
74.966255	846.739183	0.385364	-0.026242	1.934892
75.474376	857.780813	0.390369	-0.026340	1.943358
76.023795	868.801630	0.395373	-0.026445	1.951782
76.748756	879.826476	0.400378	-0.026584	1.960217
77.196504	890.873685	0.405383	-0.026671	1.968562
78.032531	901.903295	0.410387	-0.026831	1.976957
78.669175	912.901844	0.415392	-0.026953	1.985243
79.246999	923.969438	0.420397	-0.027064	1.993530
79.907385	934.991819	0.425402	-0.027191	2.001770
80.674516	946.014415	0.430406	-0.027337	2.010003
81.353457	957.072322	0.435411	-0.027467	2.018206
81.914984	968.079000	0.440416	-0.027575	2.026309
82.625533	979.110362	0.445421	-0.027712	2.034435
83.168363	990.149960	0.450425	-0.027816	2.042492
83.943479	1001.179412	0.455430	-0.027964	2.050567
84.717102	1012.207831	0.460435	-0.028112	2.058609
85.255480	1023.242051	0.465439	-0.028216	2.066566
86.065512	1034.260484	0.470444	-0.028371	2.074547
86.640465	1045.337179	0.475449	-0.028481	2.082481
87.235962	1056.349868	0.480454	-0.028596	2.090346
87.970526	1067.366522	0.485458	-0.028736	2.098216
88.643072	1078.384590	0.490463	-0.028865	2.106043
89.172081	1089.456093	0.495468	-0.028967	2.113844
89.594479	1100.495717	0.500472	-0.029049	2.121569
90.161776	1111.492863	0.505477	-0.029158	2.129271
90.850301	1122.518482	0.510482	-0.029290	2.136992
91.442985	1133.554588	0.515487	-0.029404	2.144670
91.991610	1144.576445	0.520491	-0.029510	2.152301
92.702814	1155.594462	0.525496	-0.029646	2.159939
93.268470	1166.643250	0.530501	-0.029755	2.167537
93.897018	1177.669504	0.535506	-0.029876	2.175108
94.673862	1188.669869	0.540510	-0.030024	2.182669
95.262998	1199.716057	0.545515	-0.030137	2.190191
95.870072	1210.741754	0.550520	-0.030254	2.197678
96.440393	1221.792386	0.555524	-0.030364	2.205148
97.141606	1232.766847	0.560529	-0.030498	2.212570
97.963204	1243.817348	0.565534	-0.030655	2.220045
98.418440	1254.853900	0.570539	-0.030743	2.227404
99.289086	1265.851302	0.575543	-0.030909	2.234805
99.970113	1276.894244	0.580548	-0.031040	2.242168
100.710588	1287.923532	0.585553	-0.031181	2.249512
101.282251	1298.971964	0.590558	-0.031291	2.256807
101.866464	1310.005073	0.595562	-0.031404	2.264071
102.531420	1320.972950	0.600567	-0.031531	2.271288
103.111351	1332.049483	0.605572	-0.031643	2.278532
103.728720	1343.075337	0.610576	-0.031761	2.285729
104.251584	1354.085743	0.615581	-0.031862	2.292873
104.801142	1365.099881	0.620586	-0.031968	2.300003
105.517991	1376.134570	0.625591	-0.032105	2.307159
105.916821	1387.194807	0.630595	-0.032183	2.314242
106.399968	1398.179800	0.635600	-0.032276	2.321274
107.053642	1409.206171	0.640605	-0.032402	2.328345
107.733734	1420.258366	0.645610	-0.032532	2.335417
108.137411	1431.270938	0.650614	-0.032611	2.342385
108.739948	1442.297276	0.655619	-0.032726	2.349381
109.286888	1453.305144	0.660624	-0.032832	2.356334
109.856029	1464.343602	0.665628	-0.032941	2.363290
110.335853	1475.374877	0.670633	-0.033034	2.370202
111.059972	1486.357252	0.675638	-0.033173	2.377114
111.559067	1497.442061	0.680643	-0.033269	2.384023
111.908998	1508.441726	0.685647	-0.033337	2.390829
112.731402	1519.432767	0.690652	-0.033494	2.397705
113.141170	1530.498065	0.695657	-0.033574	2.404525
113.697156	1541.517003	0.700661	-0.033681	2.411326
114.157569	1552.551244	0.705666	-0.033770	2.418097
114.729458	1563.525677	0.710671	-0.033880	2.424836
115.186189	1574.591824	0.715676	-0.033969	2.431588
115.688975	1585.608741	0.720680	-0.034066	2.438301
116.090819	1596.640185	0.725685	-0.034144	2.444984
116.743082	1607.622949	0.730690	-0.034269	2.451669
117.191323	1618.700121	0.735695	-0.034356	2.458352
117.782804	1629.672674	0.740699	-0.034470	2.464982
118.222648	1640.740375	0.745704	-0.034555	2.471621
118.760952	1651.712742	0.750709	-0.034659	2.478205
119.348508	1662.783707	0.755713	-0.034771	2.484839
119.891769	1673.772339	0.760718	-0.034876	2.491398
120.493217	1684.807040	0.765723	-0.034992	2.497978
121.159960	1695.809601	0.770728	-0.035120	2.504534
121.454744	1706.903008	0.775732	-0.035178	2.511055
121.742402	1717.880113	0.780737	-0.035234	2.517491
122.260016	1728.898642	0.785742	-0.035334	2.523977
123.136196	1739.869507	0.790747	-0.035501	2.530485
123.653944	1750.944473	0.795751	-0.035601	2.536970
124.351914	1761.963726	0.800756	-0.035735	2.543440
124.878904	1772.969934	0.805761	-0.035836	2.549853
125.562445	1783.998663	0.810765	-0.035967	2.556293
125.975248	1795.049155	0.815770	-0.036048	2.562678
126.330735	1806.064176	0.820775	-0.036117	2.569017
126.781861	1817.142192	0.825780	-0.036205	2.575394
127.161988	1828.102870	0.830784	-0.036279	2.581675
127.697698	1839.120200	0.835789	-0.036382	2.588001
128.165981	1850.140003	0.840794	-0.036472	2.594300
128.758889	1861.144277	0.845799	-0.036586	2.600598
129.339379	1872.171658	0.850803	-0.036698	2.606891
129.841188	1883.218969	0.855808	-0.036795	2.613166
130.153961	1894.215098	0.860813	-0.036856	2.619364
130.721778	1905.241869	0.865817	-0.036966	2.625609
131.139873	1916.271415	0.870822	-0.037047	2.631814
131.667064	1927.292530	0.875827	-0.037148	2.638019
132.105299	1938.298837	0.880832	-0.037233	2.644185
132.679215	1949.324247	0.885836	-0.037344	2.650372
133.247718	1960.343280	0.890841	-0.037453	2.656539
133.743998	1971.384856	0.895846	-0.037549	2.662691
134.245839	1982.368180	0.900850	-0.037646	2.668799
134.829513	1993.415990	0.905855	-0.037758	2.674941
135.287536	2004.428906	0.910860	-0.037847	2.681029
135.672537	2015.458390	0.915865	-0.037922	2.687099
135.961006	2026.490872	0.920869	-0.037979	2.693140
136.306157	2037.507546	0.925874	-0.038046	2.699169
136.952276	2048.467106	0.930879	-0.038170	2.705205
137.329231	2059.555324	0.935884	-0.038244	2.711251
137.574223	2070.536126	0.940888	-0.038292	2.717203
138.138132	2081.539952	0.945893	-0.038401	2.723208
138.675459	2092.553231	0.950898	-0.038504	2.729200
139.341987	2103.580655	0.955902	-0.038632	2.735209
139.721242	2114.610806	0.960907	-0.038706	2.741157
140.317164	2125.616879	0.965912	-0.038821	2.747116
140.795275	2136.645658	0.970917	-0.038913	2.753054
141.157885	2147.700193	0.975921	-0.038984	2.758973
141.692483	2158.663730	0.980926	-0.039087	2.764861
142.186218	2169.722688	0.985931	-0.039182	2.770779
142.655391	2180.718029	0.990936	-0.039273	2.776646
143.301963	2191.737832	0.995940	-0.039397	2.782544
143.618131	2202.770867	1.000945	-0.039459	2.788381
144.067720	2213.802038	1.005950	-0.039546	2.794227
144.491035	2224.796811	1.010954	-0.039628	2.800037
145.051091	2235.824060	1.015959	-0.039736	2.805875
145.437272	2246.865803	1.020964	-0.039811	2.811679
145.739923	2257.878442	1.025969	-0.039871	2.817443
146.306739	2268.855738	1.030973	-0.039980	2.823219
146.965116	2279.893793	1.035978	-0.040106	2.829029
147.670888	2290.891614	1.040983	-0.040241	2.834814
148.114899	2301.962622	1.045988	-0.040327	2.840583
148.180900	2312.992601	1.050992	-0.040343	2.846259
148.663296	2324.005342	1.055997	-0.040436	2.851980
148.983424	2334.983241	1.061002	-0.040499	2.857647
149.577458	2346.000648	1.066006	-0.040613	2.863366
150.173571	2357.039542	1.071011	-0.040727	2.869084
150.554709	2368.060876	1.076016	-0.040802	2.874748
150.958270	2379.082130	1.081021	-0.040880	2.880405
151.328942	2390.104763	1.086025	-0.040952	2.886045
151.570533	2401.141333	1.091030	-0.041000	2.891662
152.142020	2412.145169	1.096035	-0.041110	2.897302
152.433828	2423.149251	1.101039	-0.041168	2.902889
153.010747	2434.154336	1.106044	-0.041279	2.908508
153.346163	2445.209587	1.111049	-0.041345	2.914105
153.770251	2456.209524	1.116054	-0.041427	2.919677
154.419762	2467.198592	1.121058	-0.041551	2.925267
154.672810	2478.289958	1.126063	-0.041602	2.930837
155.120796	2489.245533	1.131068	-0.041688	2.936358
155.387465	2500.308757	1.136073	-0.041741	2.941895
155.589809	2511.298593	1.141077	-0.041782	2.947375
156.219783	2522.308290	1.146082	-0.041903	2.952919
156.529674	2533.359798	1.151087	-0.041964	2.958426
156.980784	2544.351507	1.156091	-0.042051	2.963913
157.166303	2555.404382	1.161096	-0.042089	2.969381
157.671366	2566.388984	1.166101	-0.042186	2.974853
158.240484	2577.395451	1.171106	-0.042296	2.980334
158.546358	2588.458123	1.176110	-0.042356	2.985794
159.054995	2599.433649	1.181115	-0.042454	2.991232
159.294596	2610.500403	1.186120	-0.042502	2.996664
159.517760	2621.473700	1.191125	-0.042546	3.002038
159.980848	2632.509336	1.196129	-0.042636	3.007469
160.550255	2643.494247	1.201134	-0.042745	3.012880
160.899392	2654.553942	1.206139	-0.042814	3.018285
161.338976	2665.552464	1.211143	-0.042899	3.023664
161.520622	2676.624255	1.216148	-0.042936	3.029032
161.853816	2687.570677	1.221153	-0.043001	3.034351
162.378451	2698.617970	1.226158	-0.043102	3.039738
162.723698	2709.630855	1.231162	-0.043170	3.045072
163.349751	2720.656076	1.236167	-0.043290	3.050443
163.475123	2731.681231	1.241172	-0.043316	3.055733
163.940288	2742.679554	1.246177	-0.043406	3.061049
164.169073	2753.708074	1.251181	-0.043452	3.066336
164.808328	2764.697092	1.256186	-0.043574	3.071654
165.189281	2775.741003	1.261191	-0.043649	3.076952
165.548849	2786.755992	1.266195	-0.043719	3.082224
165.865934	2797.794225	1.271200	-0.043781	3.087492
166.372520	2808.767837	1.276205	-0.043879	3.092747
166.580259	2819.825763	1.281210	-0.043920	3.097991
167.195575	2830.812221	1.286214	-0.044039	3.103249
167.651322	2841.835776	1.291219	-0.044127	3.108494
168.068427	2852.867182	1.296224	-0.044208	3.113727
168.400028	2863.878057	1.301228	-0.044273	3.118931
168.724737	2874.911039	1.306233	-0.044337	3.124135
169.004713	2885.937087	1.311238	-0.044392	3.129321
169.350844	2896.930134	1.316243	-0.044459	3.134492
169.588925	2907.966664	1.321247	-0.044507	3.139660
170.038142	2918.955087	1.326252	-0.044594	3.144825
170.391241	2929.986810	1.331257	-0.044663	3.149990
170.852014	2941.004186	1.336262	-0.044752	3.155153
171.185344	2952.024592	1.341266	-0.044817	3.160292
171.633776	2963.036479	1.346271	-0.044904	3.165434
171.993966	2974.053130	1.351276	-0.044975	3.170559
172.501506	2985.052551	1.356280	-0.045072	3.175686
172.846644	2996.088267	1.361285	-0.045140	3.180800
173.344450	3007.116141	1.366290	-0.045236	3.185923
173.662113	3018.109468	1.371295	-0.045298	3.190997
173.918007	3029.162470	1.376299	-0.045349	3.196083
174.267942	3040.148576	1.381304	-0.045418	3.201142
174.884705	3051.161603	1.386309	-0.045536	3.206241
174.785114	3062.232349	1.391314	-0.045520	3.211263
175.284651	3073.189206	1.396318	-0.045617	3.216304
175.562653	3084.233910	1.401323	-0.045671	3.221349
176.064573	3095.216466	1.406328	-0.045768	3.226386
176.547787	3106.249742	1.411332	-0.045862	3.231436
176.949387	3117.288951	1.416337	-0.045940	3.236470
177.242372	3128.287531	1.421342	-0.045997	3.241463
177.710480	3139.321833	1.426347	-0.046088	3.246488
177.873421	3150.324931	1.431351	-0.046121	3.251451
178.436168	3161.332821	1.436356	-0.046230	3.256460
178.651144	3172.364320	1.441361	-0.046273	3.261428
179.048177	3183.397116	1.446366	-0.046350	3.266412
179.295156	3194.389266	1.451370	-0.046399	3.271350
179.538331	3205.426699	1.456375	-0.046447	3.276301
179.883103	3216.425423	1.461380	-0.046515	3.281240
180.396932	3227.445626	1.466384	-0.046614	3.286203
180.769224	3238.472597	1.471389	-0.046687	3.291142
181.159103	3249.469902	1.476394	-0.046762	3.296064
181.403530	3260.504168	1.481399	-0.046811	3.300976
181.712789	3271.522571	1.486403	-0.046872	3.305882
182.168724	3282.522444	1.491408	-0.046960	3.310791
182.652218	3293.539803	1.496413	-0.047054	3.315703
183.164321	3304.548840	1.501417	-0.047152	3.320608
183.423046	3315.583667	1.506422	-0.047204	3.325486
183.625277	3326.600313	1.511427	-0.047244	3.330341
183.990103	3337.630188	1.516432	-0.047315	3.335215
184.172443	3348.630078	1.521436	-0.047352	3.340046
184.722442	3359.644200	1.526441	-0.047458	3.344922
185.037602	3370.683642	1.531446	-0.047520	3.349773
185.233023	3381.679006	1.536451	-0.047560	3.354583
185.571950	3392.693914	1.541455	-0.047626	3.359411
185.849427	3403.722796	1.546460	-0.047681	3.364232
186.228430	3414.746541	1.551465	-0.047755	3.369055
186.427461	3425.725638	1.556469	-0.047795	3.373831
186.698188	3436.786474	1.561474	-0.047848	3.378643
186.830153	3447.780467	1.566479	-0.047876	3.383403
187.196017	3458.792246	1.571484	-0.047947	3.388192
187.741914	3469.782858	1.576488	-0.048052	3.392987
188.280590	3480.827912	1.581493	-0.048156	3.397798
188.653125	3491.828314	1.586498	-0.048229	3.402562
188.881251	3502.883158	1.591503	-0.048274	3.407326
189.347036	3513.865099	1.596507	-0.048364	3.412080
189.611418	3524.887935	1.601512	-0.048417	3.416821
190.132670	3535.898391	1.606517	-0.048517	3.421581
190.363342	3546.934689	1.611521	-0.048563	3.426310
190.726231	3557.935227	1.616526	-0.048634	3.431033
190.944229	3568.962605	1.621531	-0.048678	3.435745
191.344476	3579.963154	1.626536	-0.048755	3.440459
191.649341	3591.001772	1.631540	-0.048815	3.445172
192.157967	3601.985679	1.636545	-0.048914	3.449879
192.563201	3613.029769	1.641550	-0.048992	3.454593
192.876500	3624.040550	1.646555	-0.049054	3.459276
193.124734	3635.066612	1.651559	-0.049103	3.463951
193.510153	3646.093953	1.656564	-0.049178	3.468636
193.740193	3657.077280	1.661569	-0.049224	3.473279
194.246663	3668.099641	1.666573	-0.049322	3.477963
194.584786	3679.112537	1.671578	-0.049388	3.482617
194.839226	3690.144671	1.676583	-0.049438	3.487264
195.045586	3701.144336	1.681588	-0.049480	3.491886
195.640582	3712.142693	1.686592	-0.049594	3.496545
196.221692	3723.163805	1.691597	-0.049706	3.501205
196.445212	3734.221574	1.696602	-0.049751	3.505834
196.711113	3745.216538	1.701606	-0.049803	3.510436
196.981259	3756.245339	1.706611	-0.049857	3.515046
197.219389	3767.244813	1.711616	-0.049904	3.519634
197.582514	3778.263493	1.716621	-0.049975	3.524238
197.852787	3789.314479	1.721625	-0.050028	3.528839
198.296515	3800.284872	1.726630	-0.050114	3.533420
198.324489	3811.338951	1.731635	-0.050122	3.537983
198.610593	3822.311956	1.736640	-0.050179	3.542535
199.071851	3833.335687	1.741644	-0.050268	3.547122
199.489598	3844.353890	1.746649	-0.050349	3.551696
199.527862	3855.391988	1.751654	-0.050359	3.556230
199.884670	3866.390706	1.756658	-0.050429	3.560777
200.038651	3877.426151	1.761663	-0.050460	3.565311
200.399758	3888.398138	1.766668	-0.050531	3.569836
200.571253	3899.459604	1.771673	-0.050566	3.574371
201.082720	3910.438262	1.776677	-0.050665	3.578904
201.356102	3921.497187	1.781682	-0.050719	3.583437
201.540048	3932.500521	1.786687	-0.050756	3.587933
201.870731	3943.497947	1.791692	-0.050821	3.592436
202.314135	3954.497946	1.796696	-0.050906	3.596946
202.737135	3965.514499	1.801701	-0.050989	3.601456
203.326856	3976.550364	1.806706	-0.051102	3.605985
203.447510	3987.584431	1.811710	-0.051127	3.610458
203.741720	3998.561523	1.816715	-0.051185	3.614920
203.938223	4009.603886	1.821720	-0.051225	3.619393
204.556986	4020.578660	1.826725	-0.051344	3.623878
204.838653	4031.643447	1.831729	-0.051399	3.628358
205.052480	4042.659181	1.836734	-0.051442	3.632805
205.419254	4053.670868	1.841739	-0.051514	3.637262
205.673909	4064.658085	1.846744	-0.051564	3.641691
205.922341	4075.711284	1.851748	-0.051614	3.646140
206.283075	4086.690079	1.856753	-0.051684	3.650566
206.378002	4097.775772	1.861758	-0.051705	3.655002
206.694090	4108.761398	1.866762	-0.051767	3.659415
206.899569	4119.818564	1.871767	-0.051808	3.663840
207.239071	4130.831438	1.876772	-0.051874	3.668256
207.425245	4141.840558	1.881777	-0.051912	3.672649
207.849269	4152.849737	1.886781	-0.051994	3.677061
208.093896	4163.870433	1.891786	-0.052043	3.681454
208.284715	4174.886173	1.896791	-0.052081	3.685834
208.558869	4185.891920	1.901795	-0.052136	3.690214
209.138193	4196.887027	1.906800	-0.052247	3.694615
209.496042	4207.924756	1.911805	-0.052317	3.699005
209.761296	4218.956321	1.916810	-0.052369	3.703378
210.050116	4229.959327	1.921814	-0.052426	3.707737
210.309741	4240.982298	1.926819	-0.052478	3.712096
210.698365	4251.985102	1.931824	-0.052553	3.716454
211.129285	4262.968730	1.936829	-0.052637	3.720805
211.389595	4274.043902	1.941833	-0.052689	3.725168
211.760679	4285.020690	1.946838	-0.052761	3.729499
211.760789	4296.070873	1.951843	-0.052764	3.733817
212.202732	4307.034652	1.956847	-0.052849	3.738140
212.535548	4318.090024	1.961852	-0.052914	3.742483
212.948299	4329.111544	1.966857	-0.052995	3.746815
