Wed Nov 23 17:50:12 2022

Number of Points = 2200
Depth (nm)	Load (µN)	Time (s)	Depth (V)	Load (V)
-5.351352	0.975429	0.000000	0.040896	0.938397
0.000000	6.201979	0.005005	0.039891	0.949681
5.565438	14.986138	0.010009	0.038844	0.966402
10.118827	25.762016	0.015014	0.037987	0.985259
13.382552	37.170383	0.020019	0.037372	1.003985
15.473761	48.647882	0.025024	0.036977	1.021839
17.103281	60.010122	0.030028	0.036668	1.038978
18.310917	71.343027	0.035033	0.036439	1.055578
19.216821	82.582657	0.040038	0.036266	1.071638
19.870440	93.818044	0.045043	0.036140	1.087329
20.612527	104.955661	0.050047	0.035998	1.102709
21.389024	116.071388	0.055052	0.035850	1.117864
21.934476	127.261301	0.060057	0.035745	1.132802
22.516927	138.378706	0.065061	0.035633	1.147469
24.760027	149.027846	0.070066	0.035209	1.162131
27.748032	160.115582	0.075071	0.034646	1.177501
29.064697	171.490305	0.080076	0.034396	1.192267
30.120998	182.698621	0.085080	0.034195	1.206532
31.331917	193.798811	0.090085	0.033965	1.220567
32.605492	204.896859	0.095090	0.033723	1.234466
33.609975	216.039895	0.100094	0.033532	1.248147
34.756413	227.116808	0.105099	0.033314	1.261662
36.315886	238.131877	0.110104	0.033019	1.275135
37.241408	249.320012	0.115109	0.032842	1.288400
39.088726	260.303387	0.120113	0.032493	1.301678
40.019726	271.536465	0.125118	0.032316	1.314727
41.175999	282.577066	0.130123	0.032096	1.327524
42.166474	293.668166	0.135128	0.031907	1.340187
43.632795	304.656465	0.140132	0.031629	1.352807
45.048981	315.752166	0.145137	0.031361	1.365406
46.716752	326.782247	0.150142	0.031045	1.377917
47.875639	337.950381	0.155146	0.030825	1.390265
49.142559	349.028625	0.160151	0.030585	1.402450
50.064276	360.135106	0.165156	0.030409	1.414428
51.375592	371.160373	0.170161	0.030160	1.426367
52.625604	382.206558	0.175165	0.029923	1.438204
53.752112	393.334609	0.180170	0.029709	1.449983
54.529208	404.469271	0.185175	0.029560	1.461545
55.640539	415.445793	0.190180	0.029349	1.472978
56.511364	426.553906	0.195184	0.029183	1.484367
57.547956	437.597121	0.200189	0.028986	1.495664
58.361114	448.709547	0.205194	0.028830	1.506865
59.143396	459.765788	0.210198	0.028681	1.517917
60.039888	470.808981	0.215203	0.028510	1.528916
61.251966	481.798909	0.220208	0.028280	1.539893
62.318119	492.870044	0.225213	0.028077	1.550819
63.466143	503.946673	0.230217	0.027859	1.561701
64.441287	514.991985	0.235222	0.027673	1.572420
65.475938	526.068050	0.240227	0.027476	1.583114
66.119914	537.164053	0.245232	0.027352	1.593625
67.102888	548.166152	0.250236	0.027165	1.604092
67.967978	559.246547	0.255241	0.027000	1.614524
68.900058	570.292223	0.260246	0.026823	1.624878
69.816186	581.319363	0.265250	0.026648	1.635144
70.647610	592.409822	0.270255	0.026489	1.645376
71.584945	603.422455	0.275260	0.026311	1.655508
72.535732	614.465936	0.280265	0.026129	1.665610
73.586238	625.504954	0.285269	0.025930	1.675677
74.641064	636.559691	0.290274	0.025729	1.685699
75.312388	647.657249	0.295279	0.025600	1.695580
76.144082	658.670382	0.300283	0.025441	1.705379
76.996257	669.727024	0.305288	0.025279	1.715166
77.778030	680.775196	0.310293	0.025129	1.724869
78.856246	691.767214	0.315298	0.024924	1.734558
79.609874	702.886185	0.320302	0.024780	1.744203
80.210818	713.917829	0.325307	0.024665	1.753676
81.165167	724.931798	0.330312	0.024483	1.763187
81.790642	736.001794	0.335317	0.024363	1.772597
82.662865	747.025832	0.340321	0.024196	1.781991
83.379073	758.083301	0.345326	0.024059	1.791317
84.093025	769.116508	0.350331	0.023923	1.800575
84.985925	780.114640	0.355335	0.023752	1.809807
85.986630	791.165152	0.360340	0.023562	1.819065
86.759500	802.222316	0.365345	0.023414	1.828217
87.529871	813.281783	0.370350	0.023267	1.837324
88.246765	824.312422	0.375354	0.023129	1.846347
89.280613	835.326337	0.380359	0.022933	1.855401
89.870057	846.404480	0.385364	0.022819	1.864339
90.620214	857.425949	0.390369	0.022676	1.873234
91.239930	868.465654	0.395373	0.022557	1.882064
92.215802	879.472290	0.400378	0.022371	1.890924
93.087277	890.511338	0.405383	0.022205	1.899740
93.955958	901.540305	0.410387	0.022039	1.908505
94.655737	912.616824	0.415392	0.021905	1.917222
95.316458	923.671334	0.420397	0.021778	1.925872
95.922912	934.674887	0.425402	0.021662	1.934429
96.684812	945.711091	0.430406	0.021516	1.943014
97.368677	956.751170	0.435411	0.021385	1.951544
98.084433	967.777038	0.440416	0.021248	1.960034
98.660531	978.833152	0.445421	0.021137	1.968473
99.310791	989.855773	0.450425	0.021012	1.976871
100.094840	1000.863013	0.455430	0.020863	1.985255
100.762620	1011.936771	0.460435	0.020735	1.993623
101.220274	1022.953899	0.465439	0.020646	2.001861
102.372027	1033.942912	0.470444	0.020427	2.010220
103.076809	1045.039643	0.475449	0.020292	2.018510
103.819250	1056.037096	0.480454	0.020150	2.026702
104.475375	1067.106970	0.485458	0.020024	2.034893
105.096185	1078.125964	0.490463	0.019905	2.043005
105.474450	1089.197279	0.495468	0.019831	2.051063
106.172513	1100.174983	0.500472	0.019698	2.059100
106.674757	1111.237907	0.505477	0.019601	2.067119
107.191494	1122.280880	0.510482	0.019501	2.075096
109.271955	1133.037560	0.515487	0.019108	2.083217
110.514007	1144.270616	0.520491	0.018872	2.091440
110.953850	1155.363199	0.525496	0.018787	2.099340
111.630924	1166.347870	0.530501	0.018657	2.107191
112.290019	1177.403348	0.535506	0.018531	2.115057
112.965203	1188.421717	0.540510	0.018401	2.122873
113.364899	1199.500394	0.545515	0.018323	2.130636
114.025991	1210.466382	0.550520	0.018197	2.138354
114.741985	1221.493726	0.555524	0.018060	2.146100
115.737801	1232.501606	0.560529	0.017870	2.153869
116.444372	1243.568156	0.565534	0.017735	2.161582
117.066154	1254.613842	0.570539	0.017615	2.169235
117.558600	1265.654316	0.575543	0.017520	2.176827
118.452049	1276.610523	0.580548	0.017350	2.184427
119.107651	1287.692848	0.585553	0.017224	2.192031
119.602412	1298.731948	0.590558	0.017128	2.199543
120.043433	1309.755004	0.595562	0.017043	2.207007
120.777261	1320.758168	0.600567	0.016903	2.214498
121.359105	1331.783870	0.605572	0.016791	2.221944
122.260198	1342.788468	0.610576	0.016619	2.229422
123.167462	1353.814567	0.615581	0.016446	2.236890
123.737607	1364.899898	0.620586	0.016336	2.244298
124.233358	1375.903795	0.625591	0.016240	2.251612
124.804443	1386.961486	0.630595	0.016131	2.258953
125.247826	1397.956831	0.635600	0.016045	2.266202
126.024353	1408.961811	0.640605	0.015896	2.273506
126.595590	1420.016711	0.645610	0.015786	2.280774
126.968763	1431.075217	0.650614	0.015713	2.287979
127.409470	1442.069751	0.655619	0.015628	2.295135
127.936933	1453.082376	0.660624	0.015526	2.302298
128.326151	1464.122332	0.665628	0.015451	2.309427
129.086313	1475.121259	0.670633	0.015305	2.316586
129.850002	1486.141712	0.675638	0.015159	2.323737
130.481613	1497.200943	0.680643	0.015038	2.330862
131.061818	1508.203487	0.685647	0.014926	2.337920
131.918668	1519.209152	0.690652	0.014763	2.345015
132.573922	1530.254957	0.695657	0.014637	2.352072
133.255444	1541.272485	0.700661	0.014507	2.359096
133.605080	1552.333076	0.705666	0.014438	2.366056
134.168207	1563.352961	0.710671	0.014330	2.373015
134.729106	1574.347992	0.715676	0.014222	2.379938
135.279819	1585.398017	0.720680	0.014116	2.386872
135.782793	1596.419576	0.725685	0.014019	2.393758
136.148166	1607.453277	0.730690	0.013947	2.400604
136.796479	1618.449936	0.735695	0.013823	2.407465
137.236119	1629.508907	0.740699	0.013738	2.414303
137.830824	1640.481919	0.745704	0.013623	2.421099
138.745122	1651.467544	0.750709	0.013449	2.427948
139.318252	1662.561310	0.755713	0.013339	2.434774
139.783826	1673.595138	0.760718	0.013249	2.441525
140.299698	1684.593865	0.765723	0.013149	2.448245
141.082800	1695.610151	0.770728	0.013000	2.455009
141.593631	1706.632575	0.775732	0.012901	2.461705
142.090656	1717.694998	0.780737	0.012805	2.468404
142.504680	1728.701578	0.785742	0.012725	2.475035
143.107286	1739.710262	0.790747	0.012609	2.481686
143.484202	1750.754752	0.795751	0.012535	2.488297
143.882763	1761.796978	0.800756	0.012458	2.494893
144.220624	1772.787084	0.805761	0.012392	2.501430
145.065316	1783.776722	0.810765	0.012231	2.508045
145.632572	1794.820201	0.815770	0.012121	2.514621
146.233524	1805.861084	0.820775	0.012006	2.521185
146.845099	1816.849570	0.825780	0.011888	2.527704
147.619400	1827.891272	0.830784	0.011740	2.534266
148.233162	1838.902726	0.835789	0.011622	2.540764
148.675756	1849.954490	0.840794	0.011537	2.547237
148.990310	1860.999635	0.845799	0.011475	2.553665
149.650542	1871.951504	0.850803	0.011348	2.560088
150.407925	1882.983571	0.855808	0.011203	2.566558
151.090163	1894.034878	0.860813	0.011073	2.573009
151.345908	1905.136006	0.865817	0.011022	2.579394
151.801461	1916.075084	0.870822	0.010934	2.585707
152.265664	1927.094047	0.875827	0.010844	2.592051
152.814301	1938.131211	0.880832	0.010738	2.598406
153.257683	1949.122900	0.885836	0.010652	2.604700
153.955861	1960.156344	0.890841	0.010519	2.611048
154.284354	1971.193380	0.895846	0.010454	2.617316
155.063830	1982.178859	0.900850	0.010305	2.623621
155.286776	1993.248447	0.905855	0.010261	2.629859
155.957169	2004.223923	0.910860	0.010132	2.636108
156.571757	2015.264339	0.915865	0.010014	2.642369
157.137711	2026.279786	0.920869	0.009905	2.648593
157.738597	2037.315573	0.925874	0.009790	2.654819
158.267703	2048.304009	0.930879	0.009688	2.660991
158.902400	2059.310030	0.935884	0.009566	2.667177
159.401462	2070.360528	0.940888	0.009470	2.673350
159.709020	2081.368256	0.945893	0.009409	2.679451
160.126511	2092.402569	0.950898	0.009328	2.685572
160.587553	2103.403099	0.955902	0.009239	2.691668
160.980815	2114.459777	0.960907	0.009162	2.697769
161.317326	2125.445689	0.965912	0.009096	2.703808
161.813744	2136.476309	0.970917	0.009001	2.709885
162.499488	2147.451273	0.975921	0.008869	2.715951
163.334152	2158.507029	0.980926	0.008710	2.722071
163.788629	2169.512663	0.985931	0.008622	2.728086
164.602965	2180.537949	0.990936	0.008466	2.734160
165.144332	2191.552983	0.995940	0.008362	2.740168
165.886163	2202.566671	1.000945	0.008220	2.746195
166.424799	2213.630098	1.005950	0.008116	2.752202
166.775975	2224.636570	1.010954	0.008048	2.758134
167.356280	2235.617142	1.015959	0.007936	2.764077
167.907456	2246.698257	1.020964	0.007830	2.770056
168.705248	2257.644382	1.025969	0.007677	2.775991
169.232723	2268.725945	1.030973	0.007576	2.781941
169.663253	2279.722415	1.035978	0.007492	2.787816
170.249464	2290.763507	1.040983	0.007379	2.793728
170.693210	2301.752985	1.045988	0.007293	2.799578
171.204785	2312.804472	1.050992	0.007195	2.805458
171.793150	2323.806349	1.055997	0.007082	2.811312
172.299190	2334.826942	1.061002	0.006984	2.817151
172.813998	2345.851511	1.066006	0.006885	2.822980
173.156619	2356.869973	1.071011	0.006818	2.828767
173.636296	2367.891842	1.076016	0.006725	2.834565
174.214586	2378.902124	1.081021	0.006614	2.840362
174.602371	2389.939491	1.086025	0.006538	2.846130
175.140583	2400.952041	1.091030	0.006434	2.851897
175.468404	2411.963239	1.096035	0.006370	2.857618
175.801299	2423.003243	1.101039	0.006305	2.863344
176.205163	2434.004271	1.106044	0.006226	2.869049
176.795341	2445.021023	1.111049	0.006113	2.874780
177.300003	2456.034141	1.116054	0.006016	2.880484
177.948722	2467.070194	1.121058	0.005891	2.886211
178.190358	2478.118733	1.126063	0.005843	2.891870
178.665992	2489.086674	1.131068	0.005751	2.897512
179.248325	2500.096907	1.136073	0.005639	2.903182
179.815272	2511.152599	1.141077	0.005530	2.908861
180.221025	2522.152313	1.146082	0.005451	2.914475
180.749039	2533.168002	1.151087	0.005349	2.920106
181.323318	2544.183992	1.156091	0.005239	2.925733
181.950804	2555.239267	1.161096	0.005118	2.931376
182.333263	2566.207161	1.166101	0.005044	2.936928
182.964763	2577.242355	1.171106	0.004923	2.942540
183.572374	2588.257763	1.176110	0.004806	2.948128
184.108258	2599.293974	1.181115	0.004703	2.953705
184.570087	2610.301206	1.186120	0.004613	2.959246
185.030644	2621.332505	1.191125	0.004524	2.964788
185.368543	2632.367858	1.196129	0.004458	2.970303
185.881627	2643.354650	1.201134	0.004359	2.975810
186.298215	2654.398526	1.206139	0.004278	2.981320
186.610819	2665.391279	1.211143	0.004217	2.986779
187.118914	2676.420525	1.216148	0.004119	2.992276
187.718846	2687.421918	1.221153	0.004003	2.997762
187.993760	2698.467387	1.226158	0.003949	3.003211
188.583070	2709.469939	1.231162	0.003836	3.008676
189.106890	2720.476985	1.236167	0.003735	3.014123
189.749710	2731.508569	1.241172	0.003611	3.019590
189.899304	2742.546254	1.246177	0.003581	3.024977
190.285627	2753.566298	1.251181	0.003505	3.030381
190.767570	2764.552645	1.256186	0.003412	3.035773
191.320799	2775.592013	1.261191	0.003306	3.041191
191.677833	2786.584742	1.266195	0.003236	3.046548
192.213996	2797.628675	1.271200	0.003133	3.051946
192.349761	2808.638114	1.276205	0.003104	3.057261
192.899826	2819.647487	1.281210	0.002998	3.062626
193.221526	2830.680237	1.286214	0.002935	3.067959
193.718881	2841.699216	1.291219	0.002839	3.073302
194.157541	2852.703678	1.296224	0.002754	3.078620
194.590682	2863.726009	1.301228	0.002670	3.083936
195.097849	2874.749154	1.306233	0.002572	3.089254
195.477964	2885.762424	1.311238	0.002498	3.094541
195.843967	2896.777379	1.316243	0.002427	3.099816
196.361966	2907.805466	1.321247	0.002327	3.105111
196.499600	2918.849011	1.326252	0.002298	3.110350
196.784482	2929.853944	1.331257	0.002242	3.115583
197.362732	2940.813697	1.336262	0.002131	3.120826
197.920242	2951.874358	1.341266	0.002024	3.126105
198.482076	2962.886489	1.346271	0.001916	3.131353
198.854326	2973.898127	1.351276	0.001843	3.136566
199.285506	2984.907158	1.356280	0.001759	3.141776
199.848255	2995.933090	1.361285	0.001651	3.147004
200.310797	3006.949055	1.366290	0.001561	3.152205
200.738062	3017.987330	1.371295	0.001479	3.157402
200.862070	3029.011344	1.376299	0.001453	3.162543
201.255013	3040.016529	1.381304	0.001376	3.167703
201.674441	3051.020871	1.386309	0.001295	3.172859
202.173857	3062.041823	1.391314	0.001198	3.178024
202.695335	3073.053823	1.396318	0.001098	3.183179
203.047432	3084.088833	1.401323	0.001029	3.188314
203.614010	3095.087051	1.406328	0.000920	3.193452
204.011235	3106.126975	1.411332	0.000843	3.198578
204.566901	3117.112446	1.416337	0.000736	3.203692
204.930005	3128.165103	1.421342	0.000665	3.208803
205.254164	3139.171214	1.426347	0.000601	3.213880
205.625444	3150.183470	1.431351	0.000529	3.218957
206.083901	3161.175939	1.436356	0.000440	3.224029
206.736269	3172.238607	1.441361	0.000315	3.229150
207.179227	3183.201900	1.446366	0.000229	3.234190
207.561871	3194.269012	1.451370	0.000155	3.239261
207.991216	3205.279709	1.456375	0.000071	3.244305
208.162637	3216.298649	1.461380	0.000036	3.249311
208.523343	3227.294156	1.466384	-0.000034	3.254324
209.108801	3238.319323	1.471389	-0.000147	3.259371
209.368801	3249.338308	1.476394	-0.000198	3.264365
209.733636	3260.361748	1.481399	-0.000269	3.269367
210.049721	3271.366981	1.486403	-0.000331	3.274347
210.325375	3282.423171	1.491408	-0.000386	3.279337
210.776925	3293.377061	1.496413	-0.000473	3.284296
211.280948	3304.455359	1.501417	-0.000571	3.289310
211.405812	3315.439330	1.506422	-0.000597	3.294225
211.985950	3326.448242	1.511427	-0.000708	3.299202
212.306233	3337.470381	1.516432	-0.000771	3.304145
212.801117	3348.496260	1.521436	-0.000867	3.309103
213.086926	3359.492898	1.526441	-0.000923	3.314015
213.825886	3370.522850	1.531446	-0.001065	3.318991
214.317912	3381.522106	1.536451	-0.001160	3.323915
214.687658	3392.574227	1.541455	-0.001232	3.328840
215.034291	3403.553928	1.546460	-0.001299	3.333723
215.633106	3414.590923	1.551465	-0.001415	3.338654
215.833939	3425.598006	1.556469	-0.001455	3.343516
216.280045	3436.643938	1.561474	-0.001541	3.348418
216.667713	3447.617442	1.566479	-0.001617	3.353274
217.225797	3458.654212	1.571484	-0.001724	3.358172
217.395190	3469.690429	1.576488	-0.001759	3.363014
217.884258	3480.700131	1.581493	-0.001853	3.367877
218.207600	3491.707495	1.586498	-0.001917	3.372711
218.579869	3502.731609	1.591503	-0.001989	3.377552
218.983869	3513.715537	1.596507	-0.002068	3.382372
219.438134	3524.789336	1.601512	-0.002156	3.387230
219.813987	3535.732608	1.606517	-0.002229	3.392015
220.598914	3546.791237	1.611521	-0.002379	3.396893
220.973813	3557.784913	1.616526	-0.002452	3.401686
221.591836	3568.847658	1.621531	-0.002571	3.406531
222.007052	3579.803317	1.626536	-0.002651	3.411298
222.329531	3590.878244	1.631540	-0.002715	3.416099
222.789774	3601.861653	1.636545	-0.002804	3.420871
223.283586	3612.891591	1.641550	-0.002899	3.425659
223.719513	3623.893667	1.646555	-0.002984	3.430422
224.095896	3634.942566	1.651559	-0.003057	3.435191
224.348480	3645.936828	1.656564	-0.003107	3.439916
224.818574	3656.961026	1.661569	-0.003198	3.444672
225.041537	3668.005354	1.666573	-0.003243	3.449401
225.551187	3678.977118	1.671578	-0.003341	3.454127
225.908609	3690.015189	1.676583	-0.003411	3.458856
226.413041	3701.020852	1.681588	-0.003508	3.463582
226.840400	3712.031511	1.686592	-0.003591	3.468295
227.052843	3723.058997	1.691597	-0.003634	3.472983
227.529377	3734.056449	1.696602	-0.003726	3.477683
227.907707	3745.095422	1.701606	-0.003800	3.482383
228.336250	3756.090662	1.706611	-0.003883	3.487063
228.614533	3767.136263	1.711616	-0.003938	3.491741
228.899532	3778.131142	1.716621	-0.003994	3.496392
229.411457	3789.142250	1.721625	-0.004093	3.501070
230.122687	3800.152217	1.726630	-0.004229	3.505764
230.612422	3811.173760	1.731635	-0.004323	3.510430
231.006917	3822.201965	1.736640	-0.004400	3.515083
231.278743	3833.226104	1.741644	-0.004454	3.519713
231.568410	3844.239174	1.746649	-0.004511	3.524335
232.072412	3855.265098	1.751654	-0.004608	3.528980
232.386455	3866.261307	1.756658	-0.004670	3.533586
232.877966	3877.288815	1.761663	-0.004765	3.538218
232.947976	3888.304341	1.766668	-0.004781	3.542792
233.141380	3899.329493	1.771673	-0.004820	3.547377
233.428001	3910.309159	1.776677	-0.004876	3.551948
233.851582	3921.343468	1.781682	-0.004958	3.556551
234.229159	3932.361674	1.786687	-0.005032	3.561137
234.559472	3943.393498	1.791692	-0.005097	3.565716
234.978069	3954.378091	1.796696	-0.005178	3.570280
235.303453	3965.413570	1.801701	-0.005242	3.574849
235.652917	3976.407505	1.806706	-0.005310	3.579398
236.429772	3987.443777	1.811710	-0.005459	3.584004
236.701706	3998.445390	1.816715	-0.005512	3.588536
237.141504	4009.481238	1.821720	-0.005598	3.593094
237.524755	4020.489201	1.826725	-0.005672	3.597628
237.791509	4031.495743	1.831729	-0.005725	3.602143
238.057173	4042.534278	1.836734	-0.005778	3.606666
238.501508	4053.543167	1.841739	-0.005864	3.611190
238.753275	4064.543642	1.846744	-0.005914	3.615684
239.093423	4075.569206	1.851748	-0.005980	3.620192
239.365537	4086.571354	1.856753	-0.006034	3.624678
239.720047	4097.632707	1.861758	-0.006103	3.629191
240.022050	4108.667938	1.866762	-0.006163	3.633682
240.543602	4119.685315	1.871767	-0.006263	3.638183
240.766394	4130.705873	1.876772	-0.006308	3.642649
241.061573	4141.729576	1.881777	-0.006366	3.647118
241.217136	4152.691229	1.886781	-0.006398	3.651541
241.759358	4163.736354	1.891786	-0.006502	3.656034
242.522697	4174.704636	1.896791	-0.006648	3.660513
243.353790	4185.781531	1.901795	-0.006807	3.665038
243.857128	4196.754357	1.906800	-0.006904	3.669480
244.337080	4207.801010	1.911805	-0.006997	3.673944
244.976596	4218.809536	1.916810	-0.007120	3.678404
245.365593	4229.845065	1.921814	-0.007195	3.682844
245.968932	4240.835066	1.926819	-0.007311	3.687282
246.370070	4251.869663	1.931824	-0.007389	3.691711
246.545179	4262.867511	1.936829	-0.007425	3.696097
247.074302	4273.882382	1.941833	-0.007527	3.700520
247.392565	4284.918494	1.946838	-0.007589	3.704926
248.068721	4295.894676	1.951843	-0.007719	3.709339
248.353871	4306.950542	1.956847	-0.007775	3.713737
248.742642	4317.967556	1.961852	-0.007851	3.718126
249.146006	4328.977508	1.966857	-0.007929	3.722509
249.499564	4340.008927	1.971862	-0.007998	3.726889
249.838408	4350.983586	1.976866	-0.008065	3.731241
250.223099	4362.018343	1.981871	-0.008140	3.735615
250.806234	4373.019135	1.986876	-0.008252	3.739991
251.130598	4384.084097	1.991881	-0.008315	3.744361
