Wed Nov 23 17:12:02 2022

Number of Points = 2200
Depth (nm)	Load (µN)	Time (s)	Depth (V)	Load (V)
-0.791080	1.549786	0.000000	0.054848	0.894744
0.000000	7.356260	0.005005	0.054698	0.904776
1.229490	16.065671	0.010009	0.054465	0.919644
2.100799	26.599964	0.015014	0.054299	0.936949
2.998417	37.607674	0.020019	0.054128	0.954688
3.481928	48.828998	0.025024	0.054035	0.972195
3.966453	60.070911	0.030028	0.053941	0.989422
4.264276	71.264555	0.035033	0.053882	1.006182
4.781004	82.393372	0.040038	0.053783	1.022690
5.067411	93.609267	0.045043	0.053726	1.038938
5.502887	104.746321	0.050047	0.053642	1.054903
5.634633	115.944743	0.055052	0.053614	1.070559
5.843816	127.091556	0.060057	0.053572	1.085957
6.088319	138.225926	0.065061	0.053523	1.101142
6.478265	149.310188	0.070066	0.053448	1.116123
6.789322	160.444105	0.075071	0.053386	1.130933
6.857590	171.657344	0.080076	0.053371	1.145539
7.088719	182.701356	0.085080	0.053325	1.159821
7.239942	193.856865	0.090085	0.053294	1.174033
7.426294	204.928803	0.095090	0.053256	1.187986
7.854376	216.034778	0.100094	0.053173	1.201929
7.914513	227.163527	0.105099	0.053159	1.215575
8.396720	238.211609	0.110104	0.053066	1.229158
8.635277	249.340596	0.115109	0.053018	1.242582
8.849863	260.430744	0.120113	0.052975	1.255807
8.961028	271.544057	0.125118	0.052951	1.268877
9.228927	282.640711	0.130123	0.052898	1.281860
26.168917	290.340326	0.135128	0.049718	1.297773
27.799548	304.091867	0.140132	0.049409	1.314015
28.453165	315.722350	0.145137	0.049283	1.327302
29.638146	326.778228	0.150142	0.049058	1.340036
30.352771	337.941780	0.155146	0.048921	1.352580
30.982275	349.051037	0.160151	0.048800	1.364916
32.118540	360.025371	0.165156	0.048584	1.377193
33.556986	371.048117	0.170161	0.048312	1.389530
34.775325	382.179483	0.175165	0.048080	1.401787
35.530198	393.300982	0.180170	0.047936	1.413752
36.444561	404.365440	0.185175	0.047762	1.425616
37.423313	415.434849	0.190180	0.047575	1.437411
38.515730	426.441452	0.195184	0.047367	1.449088
39.340690	437.603480	0.200189	0.047210	1.460730
40.260655	448.619442	0.205194	0.047035	1.472167
41.375542	459.658628	0.210198	0.046823	1.483608
41.857473	470.817462	0.215203	0.046729	1.494855
43.023175	481.785099	0.220208	0.046508	1.506071
44.146770	492.845814	0.225213	0.046294	1.517279
44.838496	503.966749	0.230217	0.046162	1.528312
45.525825	515.031403	0.235222	0.046030	1.539211
46.988545	525.941313	0.240227	0.045753	1.550150
47.572132	537.153102	0.245232	0.045641	1.560999
48.525030	548.173089	0.250236	0.045459	1.571717
49.144241	559.260974	0.255241	0.045340	1.582314
50.374590	570.196599	0.260246	0.045107	1.592901
51.365105	581.295949	0.265250	0.044918	1.603490
52.682760	592.304255	0.270255	0.044668	1.614032
53.556371	603.439381	0.275260	0.044501	1.624477
54.304459	614.500792	0.280265	0.044358	1.634747
55.068044	625.540924	0.285269	0.044212	1.644939
55.577769	636.638020	0.290274	0.044114	1.655038
56.344000	647.643644	0.295279	0.043967	1.665074
57.160145	658.688503	0.300283	0.043812	1.675101
57.711591	669.729836	0.305288	0.043705	1.684982
58.755440	680.759958	0.310293	0.043507	1.694948
59.364357	691.847102	0.315298	0.043390	1.704771
59.996247	702.882360	0.320302	0.043268	1.714499
60.744128	713.943232	0.325307	0.043125	1.724229
62.194214	724.832662	0.330312	0.042851	1.733970
63.319743	735.924586	0.335317	0.042637	1.743730
64.366557	747.012879	0.340321	0.042437	1.753409
64.836136	758.134794	0.345326	0.042347	1.762891
66.058020	769.061962	0.350331	0.042115	1.772382
67.012857	780.129331	0.355335	0.041933	1.781859
68.150933	791.149739	0.360340	0.041716	1.791300
68.866811	802.250424	0.365345	0.041579	1.800636
69.593253	813.305248	0.370350	0.041440	1.809888
70.412959	824.311347	0.375354	0.041284	1.819080
71.439792	835.332325	0.380359	0.041088	1.828297
71.861476	846.440321	0.385364	0.041006	1.837366
72.762288	857.450513	0.390369	0.040835	1.846446
73.317828	868.522024	0.395373	0.040728	1.855434
74.084640	879.519992	0.400378	0.040581	1.864379
74.857867	890.562428	0.405383	0.040433	1.873317
75.525202	901.589692	0.410387	0.040305	1.882172
76.542301	912.599171	0.415392	0.040112	1.891066
77.326869	923.696159	0.420397	0.039962	1.899924
77.684492	934.747440	0.425402	0.039892	1.908589
78.536251	945.725089	0.430406	0.039729	1.917291
79.270985	956.770719	0.435411	0.039589	1.925974
80.150416	967.799845	0.440416	0.039421	1.934643
80.785809	978.879108	0.445421	0.039299	1.943248
81.528073	989.881893	0.450425	0.039157	1.951784
82.235825	1000.915319	0.455430	0.039022	1.960297
82.849421	1011.954198	0.460435	0.038904	1.968752
83.477597	1022.986021	0.465439	0.038783	1.977169
84.353408	1034.029842	0.470444	0.038616	1.985623
84.827860	1045.083078	0.475449	0.038524	1.993945
85.653804	1056.070618	0.480454	0.038367	2.002274
86.277180	1067.144980	0.485458	0.038247	2.010580
87.002090	1078.168313	0.490463	0.038108	2.018839
87.703916	1089.190916	0.495468	0.037974	2.027059
88.416598	1100.241331	0.500472	0.037837	2.035268
88.876155	1111.273860	0.505477	0.037748	2.043368
89.437764	1122.297015	0.510482	0.037640	2.051454
90.086294	1133.320198	0.515487	0.037516	2.059529
90.951764	1144.329628	0.520491	0.037351	2.067616
91.318782	1155.432774	0.525496	0.037279	2.075617
91.947775	1166.406880	0.530501	0.037158	2.083558
92.282853	1177.501900	0.535506	0.037093	2.091484
92.979898	1188.473306	0.540510	0.036959	2.099379
93.541718	1199.503818	0.545515	0.036851	2.107254
94.072261	1210.565406	0.550520	0.036749	2.115114
94.527061	1221.558198	0.555524	0.036661	2.122878
95.346726	1232.585648	0.560529	0.036504	2.130724
95.744820	1243.651971	0.565534	0.036427	2.138469
96.308349	1254.658507	0.570539	0.036318	2.146183
96.960097	1265.686472	0.575543	0.036193	2.153904
97.510582	1276.716834	0.580548	0.036087	2.161576
97.760956	1287.795425	0.585553	0.036037	2.169184
98.356729	1298.776244	0.590558	0.035923	2.176779
98.945808	1309.777036	0.595562	0.035810	2.184359
99.507413	1320.842383	0.600567	0.035702	2.191949
99.889440	1331.869282	0.605572	0.035627	2.199447
100.346921	1342.899479	0.610576	0.035539	2.206938
100.754095	1353.940419	0.615581	0.035459	2.214400
101.224425	1364.936012	0.620586	0.035368	2.221820
101.865513	1375.954669	0.625591	0.035245	2.229269
102.521993	1386.972528	0.630595	0.035120	2.236695
103.007754	1398.035628	0.635600	0.035026	2.244089
103.305239	1409.081815	0.640605	0.034967	2.251406
103.936191	1420.078704	0.645610	0.034846	2.258740
104.516293	1431.104513	0.650614	0.034734	2.266058
105.249062	1442.082904	0.655619	0.034594	2.273354
105.836502	1453.153159	0.660624	0.034481	2.280655
106.386384	1464.157936	0.665628	0.034375	2.287881
106.974927	1475.210050	0.670633	0.034262	2.295124
107.389904	1486.228557	0.675638	0.034182	2.302285
107.952707	1497.263096	0.680643	0.034073	2.309465
108.444666	1508.268995	0.685647	0.033978	2.316590
109.002982	1519.295129	0.690652	0.033871	2.323719
109.666742	1530.312357	0.695657	0.033743	2.330843
110.047441	1541.370571	0.700661	0.033669	2.337912
110.744627	1552.353380	0.705666	0.033536	2.344977
111.235667	1563.415145	0.710671	0.033441	2.352028
111.444296	1574.469164	0.715676	0.033399	2.358995
111.936337	1585.462142	0.720680	0.033304	2.365961
112.365133	1596.489884	0.725685	0.033221	2.372915
112.943164	1607.469866	0.730690	0.033110	2.379849
113.587817	1618.515595	0.735695	0.032986	2.386818
114.163922	1629.566316	0.740699	0.032875	2.393755
114.395610	1640.590764	0.745704	0.032829	2.400586
114.983913	1651.578716	0.750709	0.032716	2.407447
115.380467	1662.659203	0.755713	0.032639	2.414306
116.056112	1673.594237	0.760718	0.032509	2.421113
116.537742	1684.675421	0.765723	0.032416	2.427951
117.059966	1695.697446	0.770728	0.032315	2.434742
117.390059	1706.718435	0.775732	0.032251	2.441475
117.744916	1717.757574	0.780737	0.032181	2.448205
118.093860	1728.785919	0.785742	0.032113	2.454909
118.909488	1739.730349	0.790747	0.031957	2.461635
119.515899	1750.766980	0.795751	0.031841	2.468358
120.584074	1761.802784	0.800756	0.031638	2.475151
121.040369	1772.863875	0.805761	0.031549	2.481821
121.521181	1783.884993	0.810765	0.031456	2.488455
121.842111	1794.905101	0.815770	0.031393	2.495040
122.731048	1805.891543	0.820775	0.031224	2.501696
123.054539	1816.960917	0.825780	0.031160	2.508274
123.553336	1827.965630	0.830784	0.031064	2.514831
123.794081	1839.002920	0.835789	0.031016	2.521341
124.350889	1850.009971	0.840794	0.030909	2.527876
124.789830	1861.042367	0.845799	0.030824	2.534387
125.418914	1872.036310	0.850803	0.030703	2.540894
125.733148	1883.116915	0.855808	0.030641	2.547376
126.300172	1894.094515	0.860813	0.030532	2.553829
126.555146	1905.144760	0.865817	0.030482	2.560249
127.213005	1916.113013	0.870822	0.030356	2.566680
127.755387	1927.176598	0.875827	0.030251	2.573129
128.261478	1938.229318	0.880832	0.030153	2.579548
128.757196	1949.193985	0.885836	0.030058	2.585899
129.100488	1960.270406	0.890841	0.029990	2.592270
129.716778	1971.207674	0.895846	0.029872	2.598596
130.566127	1982.248531	0.900850	0.029710	2.605008
131.048282	1993.295834	0.905855	0.029617	2.611340
131.593971	2004.296786	0.910860	0.029512	2.617643
131.799057	2015.376463	0.915865	0.029470	2.623913
132.422815	2026.327935	0.920869	0.029351	2.630172
132.999245	2037.359411	0.925874	0.029240	2.636451
133.591354	2048.397577	0.930879	0.029126	2.642722
134.130543	2059.379787	0.935884	0.029022	2.648938
134.507067	2070.449883	0.940888	0.028949	2.655158
134.956938	2081.424763	0.945893	0.028862	2.661325
135.283218	2092.468381	0.950898	0.028798	2.667493
136.052668	2103.437984	0.955902	0.028650	2.673683
136.488422	2114.521778	0.960907	0.028566	2.679864
136.743437	2125.550828	0.965912	0.028515	2.685969
137.200989	2136.546273	0.970917	0.028427	2.692076
137.601040	2147.538062	0.975921	0.028349	2.698158
138.180637	2158.572845	0.980926	0.028238	2.704280
138.668507	2169.594068	0.985931	0.028143	2.710365
139.115135	2180.642782	0.990936	0.028057	2.716444
139.428019	2191.652341	0.995940	0.027995	2.722466
139.914992	2202.654360	1.000945	0.027901	2.728499
140.494808	2213.679927	1.005950	0.027790	2.734548
141.137016	2224.677942	1.010954	0.027666	2.740579
141.478650	2235.739617	1.015959	0.027600	2.746580
141.672922	2246.798151	1.020964	0.027560	2.752541
142.070256	2257.731325	1.025969	0.027483	2.758456
142.454153	2268.779922	1.030973	0.027408	2.764418
143.028970	2279.801875	1.035978	0.027298	2.770384
143.759296	2290.809075	1.040983	0.027158	2.776356
144.022563	2301.869010	1.045988	0.027106	2.782265
144.457636	2312.848350	1.050992	0.027022	2.788147
144.996111	2323.888402	1.055997	0.026918	2.794066
145.309462	2334.909430	1.061002	0.026856	2.799925
145.859234	2345.918936	1.066006	0.026750	2.805804
146.341485	2356.952380	1.071011	0.026657	2.811672
146.772639	2367.966270	1.076016	0.026573	2.817510
147.303606	2378.962365	1.081021	0.026471	2.823342
147.922033	2389.964900	1.086025	0.026352	2.829180
148.354070	2401.048099	1.091030	0.026269	2.835017
148.797579	2412.047609	1.096035	0.026183	2.840800
149.297404	2423.061693	1.101039	0.026086	2.846589
149.548509	2434.098955	1.106044	0.026036	2.852337
149.979125	2445.066409	1.111049	0.025953	2.858067
150.384035	2456.109825	1.116054	0.025874	2.863820
151.054363	2467.123894	1.121058	0.025746	2.869588
151.497266	2478.168850	1.126063	0.025660	2.875324
151.842130	2489.185996	1.131068	0.025592	2.881019
152.322935	2500.192733	1.136073	0.025499	2.886719
153.089956	2511.209867	1.141077	0.025353	2.892458
153.502495	2522.214285	1.146082	0.025272	2.898123
153.914383	2533.258766	1.151087	0.025192	2.903797
154.147581	2544.291926	1.156091	0.025146	2.909427
154.615874	2555.284666	1.161096	0.025055	2.915061
154.989826	2566.313838	1.166101	0.024982	2.920689
155.370716	2577.335941	1.171106	0.024908	2.926303
155.985129	2588.327024	1.176110	0.024790	2.931926
156.310547	2599.354597	1.181115	0.024726	2.937513
156.722068	2610.371701	1.186120	0.024647	2.943096
157.270633	2621.409735	1.191125	0.024541	2.948701
157.609986	2632.406569	1.196129	0.024474	2.954242
158.132167	2643.442282	1.201134	0.024374	2.959820
158.488013	2654.450616	1.206139	0.024304	2.965348
158.981178	2665.478558	1.211143	0.024209	2.970896
159.229436	2676.516095	1.216148	0.024160	2.976402
159.937366	2687.473152	1.221153	0.024024	2.981927
160.234154	2698.535766	1.226158	0.023966	2.987432
160.847373	2709.544470	1.231162	0.023848	2.992947
161.155856	2720.570197	1.236167	0.023787	2.998416
161.476986	2731.596039	1.241172	0.023724	3.003876
161.968895	2742.600430	1.246177	0.023629	3.009341
162.485553	2753.605152	1.251181	0.023530	3.014799
162.961419	2764.640745	1.256186	0.023438	3.020257
163.401742	2775.650442	1.261191	0.023352	3.025686
163.691566	2786.690885	1.266195	0.023295	3.031099
164.268577	2797.675584	1.271200	0.023184	3.036517
164.550448	2808.713503	1.276205	0.023129	3.041908
165.044764	2819.745851	1.281210	0.023033	3.047318
165.337962	2830.720672	1.286214	0.022975	3.052661
165.717175	2841.782683	1.291219	0.022901	3.058049
165.999407	2852.803315	1.296224	0.022846	3.063393
166.506883	2863.791968	1.301228	0.022748	3.068745
166.959502	2874.802366	1.306233	0.022660	3.074091
167.314726	2885.839866	1.311238	0.022591	3.079425
167.888780	2896.858653	1.316243	0.022480	3.084773
168.081613	2907.895131	1.321247	0.022441	3.090066
168.610103	2918.867559	1.326252	0.022340	3.095366
168.860169	2929.933351	1.331257	0.022290	3.100663
169.332239	2940.900589	1.336262	0.022199	3.105935
169.789934	2951.965083	1.341266	0.022110	3.111241
170.034261	2962.946881	1.346271	0.022061	3.116470
170.419716	2973.977177	1.351276	0.021986	3.121733
170.825931	2985.006458	1.356280	0.021907	3.126988
171.285932	2996.017635	1.361285	0.021818	3.132234
171.735574	3007.018893	1.366290	0.021731	3.137465
172.180208	3018.051790	1.371295	0.021645	3.142702
172.513691	3029.064826	1.376299	0.021580	3.147904
172.885117	3040.097330	1.381304	0.021507	3.153113
173.222807	3051.094094	1.386309	0.021441	3.158291
173.724664	3062.114810	1.391314	0.021344	3.163495
173.916763	3073.155541	1.396318	0.021306	3.168657
174.220008	3084.141608	1.401323	0.021246	3.173800
174.708731	3095.176536	1.406328	0.021152	3.178982
175.193091	3106.168485	1.411332	0.021058	3.184136
175.590606	3117.210835	1.416337	0.020981	3.189292
175.996455	3128.231122	1.421342	0.020902	3.194432
176.332287	3139.247226	1.426347	0.020836	3.199551
176.429196	3150.278776	1.431351	0.020815	3.204637
177.062666	3161.268729	1.436356	0.020693	3.209768
177.262156	3172.314256	1.441361	0.020653	3.214858
177.492830	3183.309066	1.446366	0.020607	3.219921
177.809726	3194.332687	1.451370	0.020545	3.225001
177.991993	3205.347913	1.456375	0.020508	3.230050
178.371347	3216.351718	1.461380	0.020434	3.235113
178.832065	3227.362020	1.466384	0.020345	3.240181
179.244074	3238.403399	1.471389	0.020265	3.245249
179.564938	3249.404658	1.476394	0.020202	3.250279
180.071004	3260.417585	1.481399	0.020104	3.255331
180.392984	3271.449242	1.486403	0.020041	3.260359
180.704065	3282.476466	1.491408	0.019980	3.265375
181.151634	3293.462368	1.496413	0.019893	3.270383
181.535244	3304.501963	1.501417	0.019819	3.275399
182.032440	3315.488768	1.506422	0.019723	3.280399
182.228443	3326.565811	1.511427	0.019683	3.285392
182.690761	3337.545382	1.516432	0.019594	3.290368
182.986350	3348.570105	1.521436	0.019536	3.295336
183.286269	3359.569237	1.526441	0.019477	3.300285
183.774190	3370.596060	1.531446	0.019382	3.305262
184.293347	3381.608640	1.536451	0.019282	3.310230
184.463385	3392.641311	1.541455	0.019248	3.315155
185.028014	3403.616415	1.546460	0.019139	3.320097
185.541061	3414.658336	1.551465	0.019040	3.325054
186.062705	3425.681622	1.556469	0.018939	3.329997
186.360680	3436.706695	1.561474	0.018881	3.334905
186.936040	3447.676149	1.566479	0.018770	3.339816
187.396069	3458.745298	1.571484	0.018681	3.344749
187.862303	3469.732175	1.576488	0.018591	3.349639
188.307729	3480.760650	1.581493	0.018504	3.354538
188.646755	3491.784393	1.586498	0.018438	3.359414
189.056944	3502.815857	1.591503	0.018358	3.364296
189.258110	3513.817536	1.596507	0.018318	3.369131
189.657447	3524.843188	1.601512	0.018240	3.373994
190.008557	3535.835625	1.606517	0.018172	3.378830
190.425954	3546.852825	1.611521	0.018091	3.383677
190.639983	3557.882866	1.616526	0.018048	3.388499
190.835091	3568.908935	1.621531	0.018008	3.393309
191.210969	3579.907484	1.626536	0.017935	3.398123
191.534498	3590.938065	1.631540	0.017872	3.402937
191.999714	3601.927682	1.636545	0.017782	3.407743
192.350534	3612.957930	1.641550	0.017713	3.412547
192.723048	3623.978446	1.646555	0.017640	3.417342
193.027091	3634.990308	1.651559	0.017581	3.422118
193.429940	3646.018724	1.656564	0.017502	3.426907
193.842899	3657.020115	1.661569	0.017422	3.431678
194.161318	3668.046679	1.666573	0.017360	3.436442
194.606019	3679.053850	1.671578	0.017273	3.441207
195.009626	3690.089542	1.676583	0.017195	3.445971
195.293315	3701.084769	1.681588	0.017139	3.450698
195.551163	3712.099552	1.686592	0.017088	3.455424
195.826863	3723.145281	1.691597	0.017033	3.460158
196.142875	3734.134285	1.696602	0.016971	3.464866
196.328900	3745.172873	1.701606	0.016934	3.469574
196.648652	3756.174354	1.706611	0.016871	3.474275
196.993163	3767.218178	1.711616	0.016804	3.478990
197.515956	3778.173668	1.716621	0.016703	3.483683
198.043883	3789.233291	1.721625	0.016601	3.488413
198.410813	3800.210280	1.726630	0.016530	3.493084
198.987849	3811.244951	1.731635	0.016419	3.497796
199.336812	3822.254149	1.736640	0.016350	3.502466
199.824556	3833.302201	1.741644	0.016256	3.507161
200.035119	3844.283975	1.746649	0.016214	3.511790
200.305369	3855.342491	1.751654	0.016160	3.516452
200.745349	3866.306962	1.756658	0.016075	3.521088
201.066143	3877.375567	1.761663	0.016012	3.525748
201.458535	3888.355023	1.766668	0.015936	3.530372
201.747019	3899.400700	1.771673	0.015879	3.535006
202.148790	3910.379349	1.776677	0.015801	3.539619
202.584050	3921.408734	1.781682	0.015716	3.544250
202.955062	3932.434953	1.786687	0.015644	3.548867
203.260215	3943.472572	1.791692	0.015584	3.553475
203.529895	3954.464936	1.796696	0.015531	3.558054
203.705691	3965.473610	1.801701	0.015495	3.562624
204.039880	3976.488702	1.806706	0.015430	3.567208
204.459272	3987.505939	1.811710	0.015348	3.571796
204.745532	3998.512834	1.816715	0.015292	3.576360
205.060694	4009.549838	1.821720	0.015230	3.580933
205.277717	4020.562160	1.826725	0.015186	3.585479
205.550923	4031.567500	1.831729	0.015132	3.590023
205.850970	4042.597384	1.836734	0.015073	3.594574
206.334559	4053.597759	1.841739	0.014980	3.599127
206.755188	4064.613275	1.846744	0.014898	3.603674
207.190460	4075.668269	1.851748	0.014814	3.608232
207.433873	4086.643164	1.856753	0.014766	3.612731
207.717160	4097.701927	1.861758	0.014710	3.617263
208.130091	4108.714953	1.866762	0.014629	3.621785
208.649115	4119.758538	1.871767	0.014529	3.626324
208.936199	4130.747059	1.876772	0.014473	3.630811
209.318965	4141.771102	1.881777	0.014398	3.635317
209.502560	4152.799389	1.886781	0.014361	3.639797
210.037094	4163.806525	1.891786	0.014258	3.644301
210.535221	4174.807965	1.896791	0.014162	3.648793
210.855227	4185.862710	1.901795	0.014099	3.653282
211.113276	4196.843680	1.906800	0.014048	3.657729
211.440342	4207.878337	1.911805	0.013984	3.662199
211.817889	4218.901806	1.916810	0.013910	3.666665
212.024504	4229.895982	1.921814	0.013869	3.671095
212.491840	4240.904538	1.926819	0.013778	3.675553
212.826252	4251.943022	1.931824	0.013713	3.680004
212.934519	4262.956724	1.936829	0.013690	3.684416
213.268249	4273.970078	1.941833	0.013624	3.688846
213.707435	4284.964676	1.946838	0.013539	3.693274
213.963730	4296.028500	1.951843	0.013488	3.697705
214.238661	4306.997252	1.956847	0.013434	3.702095
214.607681	4318.040469	1.961852	0.013362	3.706518
214.833546	4329.015578	1.966857	0.013317	3.710895
215.247377	4340.060589	1.971862	0.013237	3.715314
215.738421	4351.060363	1.976866	0.013142	3.719717
216.099528	4362.086791	1.981871	0.013071	3.724112
216.405341	4373.106877	1.986876	0.013011	3.728494
216.667822	4384.141915	1.991881	0.012959	3.732872
216.926503	4395.131635	1.996885	0.012908	3.737226
217.194378	4406.147109	2.001890	0.012855	3.741587
217.636193	4417.168914	2.006895	0.012769	3.745962
217.804606	4428.182183	2.011899	0.012735	3.750302
