Wed Nov 23 17:31:11 2022

Number of Points = 2200
Depth (nm)	Load (µN)	Time (s)	Depth (V)	Load (V)
-3.436780	0.078108	0.000000	0.066320	0.853686
0.000000	5.996238	0.005005	0.065674	0.866092
3.171819	14.886754	0.010009	0.065076	0.883154
5.681516	25.549306	0.015014	0.064603	0.902399
7.373775	36.806843	0.020019	0.064282	0.921707
8.643149	48.133931	0.025024	0.064041	0.940480
9.335510	59.522066	0.030028	0.063909	0.958647
10.094343	70.755496	0.035033	0.063764	0.976278
10.767634	81.997253	0.040038	0.063634	0.993562
11.230467	93.206414	0.045043	0.063545	1.010387
11.907888	104.352105	0.050047	0.063415	1.026958
12.293626	115.572077	0.055052	0.063340	1.043219
12.843800	126.710255	0.060057	0.063234	1.059200
13.347481	137.856163	0.065061	0.063137	1.074930
14.323966	148.850382	0.070066	0.062951	1.090464
22.063737	158.591633	0.075071	0.061496	1.107438
23.006500	170.850620	0.080076	0.061316	1.124168
23.958404	182.249212	0.085080	0.061134	1.139540
24.936613	193.415152	0.090085	0.060948	1.154420
25.709304	204.588291	0.095090	0.060800	1.169023
26.895210	215.631965	0.100094	0.060575	1.183474
28.016456	226.738662	0.105099	0.060362	1.197798
28.680011	237.950686	0.110104	0.060235	1.211875
29.521170	249.031401	0.115109	0.060074	1.225711
30.580672	260.099279	0.120113	0.059873	1.239471
31.589736	271.169434	0.125118	0.059681	1.253061
32.464617	282.326665	0.130123	0.059514	1.266548
33.337261	293.406145	0.135128	0.059347	1.279802
34.129424	304.519626	0.140132	0.059196	1.292925
34.722860	315.695286	0.145137	0.059082	1.305904
35.784162	326.660140	0.150142	0.058880	1.318709
36.715475	337.744718	0.155146	0.058702	1.331471
37.513943	348.867612	0.160151	0.058550	1.344100
38.050946	359.959595	0.165156	0.058446	1.356474
38.960561	371.017036	0.170161	0.058273	1.368844
39.513558	382.123643	0.175165	0.058166	1.381018
40.422529	393.137170	0.180170	0.057993	1.393122
41.271349	404.224877	0.185175	0.057831	1.405177
42.220759	415.287279	0.190180	0.057650	1.417141
42.979383	426.364150	0.195184	0.057505	1.428947
43.808753	437.434717	0.200189	0.057347	1.440676
44.485848	448.531756	0.205194	0.057217	1.452281
45.422440	459.555867	0.210198	0.057038	1.463814
46.516013	470.573208	0.215203	0.056830	1.475306
47.290958	481.712851	0.220208	0.056682	1.486717
47.979757	492.786259	0.225213	0.056550	1.497944
48.460048	503.867240	0.230217	0.056457	1.509021
49.227484	514.884639	0.235222	0.056311	1.520055
49.898663	525.973454	0.240227	0.056182	1.531045
50.354206	537.053771	0.245232	0.056094	1.541875
51.222884	548.045054	0.250236	0.055928	1.552684
51.525331	559.182858	0.255241	0.055869	1.563365
52.249420	570.168185	0.260246	0.055730	1.573972
53.102449	581.198574	0.265250	0.055567	1.584593
53.826291	592.292948	0.270255	0.055429	1.595159
54.316749	603.372209	0.275260	0.055334	1.605565
55.081875	614.387406	0.280265	0.055188	1.615934
55.683429	625.459726	0.285269	0.055072	1.626236
56.694786	636.427447	0.290274	0.054879	1.636510
57.235858	647.547576	0.295279	0.054775	1.646705
57.933224	658.591462	0.300283	0.054642	1.656820
58.562731	669.639138	0.305288	0.054521	1.666854
59.052888	680.730222	0.310293	0.054426	1.676823
59.619539	691.714273	0.315298	0.054317	1.686663
60.523393	702.764523	0.320302	0.054145	1.696607
61.005937	713.832196	0.325307	0.054051	1.706379
61.680106	724.861577	0.330312	0.053922	1.716120
62.179032	735.926217	0.335317	0.053826	1.725783
62.999077	746.931849	0.340321	0.053669	1.735438
63.569043	758.004547	0.345326	0.053559	1.745021
64.261849	769.036164	0.350331	0.053427	1.754554
64.847755	780.087057	0.355335	0.053314	1.764019
65.704216	791.096850	0.360340	0.053151	1.773479
66.158146	802.197511	0.365345	0.053063	1.782846
66.608380	813.222503	0.370350	0.052975	1.792101
67.610918	824.194531	0.375354	0.052785	1.801423
68.262952	835.272105	0.380359	0.052660	1.810683
68.992803	846.323884	0.385364	0.052520	1.819896
69.547118	857.357938	0.390369	0.052413	1.828999
70.397263	868.387046	0.395373	0.052251	1.838136
70.987647	879.432761	0.400378	0.052137	1.847167
71.763002	890.478130	0.405383	0.051989	1.856206
72.377740	901.508312	0.410387	0.051871	1.865144
72.980292	912.552615	0.415392	0.051755	1.874047
73.502409	923.616706	0.420397	0.051655	1.882901
74.074631	934.635383	0.425402	0.051544	1.891691
74.812573	945.663395	0.430406	0.051403	1.900493
75.318871	956.697231	0.435411	0.051305	1.909196
75.987106	967.712122	0.440416	0.051177	1.917888
76.652627	978.793061	0.445421	0.051050	1.926590
77.211630	989.800973	0.450425	0.050942	1.935169
77.748360	1000.843518	0.455430	0.050839	1.943731
78.279730	1011.889163	0.460435	0.050736	1.952255
78.767907	1022.924489	0.465439	0.050642	1.960723
79.429858	1033.953274	0.470444	0.050515	1.969195
79.878219	1045.017943	0.475449	0.050428	1.977602
80.371107	1056.009208	0.480454	0.050333	1.985930
80.917392	1067.061032	0.485458	0.050228	1.994281
81.430386	1078.103532	0.490463	0.050129	2.002582
82.110395	1089.100589	0.495468	0.049998	2.010857
82.606949	1100.170191	0.500472	0.049902	2.019105
83.390480	1111.146957	0.505477	0.049753	2.027324
84.104529	1122.215657	0.510482	0.049616	2.035558
84.468528	1133.261354	0.515487	0.049545	2.043656
84.920955	1144.299184	0.520491	0.049457	2.051737
85.446908	1155.313192	0.525496	0.049356	2.059788
86.125350	1166.315630	0.530501	0.049226	2.067836
86.634539	1177.385119	0.535506	0.049128	2.075859
87.135051	1188.410099	0.540510	0.049031	2.083817
87.682498	1199.428607	0.545515	0.048925	2.091752
87.986769	1210.503848	0.550520	0.048866	2.099637
88.415680	1221.492929	0.555524	0.048782	2.107463
89.008084	1232.525381	0.560529	0.048669	2.115329
89.373913	1243.563952	0.565534	0.048597	2.123116
89.890693	1254.593755	0.570539	0.048497	2.130903
90.271909	1265.634633	0.575543	0.048423	2.138639
90.715527	1276.630420	0.580548	0.048337	2.146329
91.300200	1287.669565	0.585553	0.048225	2.154055
91.798223	1298.689774	0.590558	0.048129	2.161719
92.304204	1309.727619	0.595562	0.048031	2.169371
92.832569	1320.765601	0.600567	0.047929	2.177000
93.414179	1331.762278	0.605572	0.047817	2.184587
93.827254	1342.833425	0.610576	0.047737	2.192159
94.270239	1353.854520	0.615581	0.047651	2.199678
94.788134	1364.847594	0.620586	0.047551	2.207169
95.189946	1375.923447	0.625591	0.047473	2.214664
95.475170	1386.932711	0.630595	0.047417	2.222063
95.975003	1397.940873	0.635600	0.047320	2.229485
96.564274	1408.963375	0.640605	0.047207	2.236911
96.874290	1420.039123	0.645610	0.047146	2.244286
97.686285	1430.958387	0.650614	0.046991	2.251644
98.409904	1442.064652	0.655619	0.046853	2.259081
98.695499	1453.087903	0.660624	0.046796	2.266343
99.358822	1464.081543	0.665628	0.046669	2.273646
99.645215	1475.150524	0.670633	0.046613	2.280891
100.262030	1486.143551	0.675638	0.046494	2.288136
100.547660	1497.199647	0.680643	0.046438	2.295327
101.084950	1508.211798	0.685647	0.046334	2.302521
101.547313	1519.245227	0.690652	0.046245	2.309690
102.054167	1530.233053	0.695657	0.046147	2.316818
102.317247	1541.316307	0.700661	0.046095	2.323932
102.661955	1552.323842	0.705666	0.046027	2.330993
103.163826	1563.344226	0.710671	0.045930	2.338075
103.551260	1574.362260	0.715676	0.045855	2.345109
103.942654	1585.393312	0.720680	0.045779	2.352131
104.242759	1596.434137	0.725685	0.045720	2.359120
104.781488	1607.399180	0.730690	0.045616	2.366089
105.171192	1618.489582	0.735695	0.045540	2.373085
105.578223	1629.471837	0.740699	0.045461	2.379997
105.878151	1640.528845	0.745704	0.045402	2.386914
106.290861	1651.541227	0.750709	0.045322	2.393805
106.638458	1662.566629	0.755713	0.045254	2.400671
107.139145	1673.557940	0.760718	0.045157	2.407528
107.546490	1684.656470	0.765723	0.045078	2.414412
107.863427	1695.609331	0.770728	0.045016	2.421169
108.503209	1706.633157	0.775732	0.044893	2.428015
108.932006	1717.669592	0.780737	0.044810	2.434807
109.192897	1728.737890	0.785742	0.044758	2.441566
109.372341	1739.725309	0.790747	0.044722	2.448241
110.000681	1750.731138	0.795751	0.044601	2.454998
110.224713	1761.775404	0.800756	0.044556	2.461680
110.775541	1772.772665	0.805761	0.044450	2.468379
111.089720	1783.826135	0.810765	0.044389	2.475047
111.565622	1794.844266	0.815770	0.044297	2.481708
111.815690	1805.879045	0.820775	0.044247	2.488316
112.186652	1816.908899	0.825780	0.044175	2.494928
112.522194	1827.888635	0.830784	0.044109	2.501486
112.938701	1838.959330	0.835789	0.044028	2.508095
113.352733	1849.915831	0.840794	0.043948	2.514619
113.910106	1860.957420	0.845799	0.043840	2.521204
114.131551	1872.012100	0.850803	0.043796	2.527715
114.460971	1883.040269	0.855808	0.043732	2.534214
114.696044	1894.051527	0.860813	0.043685	2.540669
114.879182	1905.076709	0.865817	0.043648	2.547106
115.252935	1916.099470	0.870822	0.043575	2.553561
115.609381	1927.116746	0.875827	0.043505	2.559993
115.766825	1938.128545	0.880832	0.043473	2.566368
116.348022	1949.161576	0.885836	0.043361	2.572819
116.630736	1960.241027	0.890841	0.043305	2.579224
116.925753	1971.196917	0.895846	0.043247	2.585545
117.158756	1982.220514	0.900850	0.043201	2.591878
117.591137	1993.240025	0.905855	0.043117	2.598230
118.063090	2004.236965	0.910860	0.043026	2.604560
118.360211	2015.293095	0.915865	0.042967	2.610877
118.760425	2026.299127	0.920869	0.042889	2.617169
119.068538	2037.319257	0.925874	0.042829	2.623436
119.846828	2048.248857	0.930879	0.042680	2.629723
120.707063	2059.334375	0.935884	0.042516	2.636096
120.941093	2070.367154	0.940888	0.042469	2.642312
121.361430	2081.391999	0.945893	0.042388	2.648542
121.735540	2092.400865	0.950898	0.042315	2.654741
122.190075	2103.417105	0.955902	0.042227	2.660943
122.600089	2114.423641	0.960907	0.042147	2.667117
122.929751	2125.505503	0.965912	0.042082	2.673305
123.277779	2136.459252	0.970917	0.042014	2.679410
123.599487	2147.520598	0.975921	0.041951	2.685557
123.842061	2158.540621	0.980926	0.041903	2.691652
124.247369	2169.548093	0.985931	0.041824	2.697756
124.401454	2180.583931	0.990936	0.041793	2.703817
124.856854	2191.574681	0.995940	0.041704	2.709892
125.222676	2202.598888	1.000945	0.041633	2.715956
125.500620	2213.648323	1.005950	0.041578	2.722005
125.895336	2224.644358	1.010954	0.041501	2.728032
126.172234	2235.698289	1.015959	0.041447	2.734057
126.463197	2246.672901	1.020964	0.041389	2.740027
126.932873	2257.700964	1.025969	0.041299	2.746044
127.162214	2268.740889	1.030973	0.041253	2.752013
127.429038	2279.745503	1.035978	0.041200	2.757957
127.722783	2290.779194	1.040983	0.041142	2.763908
128.186553	2301.790791	1.045988	0.041052	2.769863
128.565419	2312.800432	1.050992	0.040979	2.775789
128.898160	2323.834392	1.055997	0.040913	2.781708
129.493057	2334.808584	1.061002	0.040799	2.787626
130.135566	2345.854581	1.066006	0.040676	2.793577
130.543376	2356.876807	1.071011	0.040597	2.799464
131.127404	2367.892145	1.076016	0.040484	2.805364
131.239352	2378.964260	1.081021	0.040460	2.811204
131.437991	2389.964080	1.086025	0.040420	2.817009
131.911584	2400.939578	1.091030	0.040329	2.822833
132.210476	2411.993168	1.096035	0.040270	2.828657
132.489566	2423.001139	1.101039	0.040215	2.834442
132.789136	2434.053220	1.106044	0.040156	2.840242
133.014585	2445.028452	1.111049	0.040111	2.845978
133.335338	2456.104551	1.116054	0.040048	2.851770
133.332582	2467.080000	1.121058	0.040046	2.857447
134.083835	2478.058737	1.126063	0.039902	2.863234
134.258604	2489.141395	1.131068	0.039867	2.868971
134.838308	2500.124059	1.136073	0.039755	2.874709
135.015177	2511.181552	1.141077	0.039719	2.880410
135.457358	2522.161835	1.146082	0.039634	2.886103
135.748605	2533.226621	1.151087	0.039576	2.891803
136.145440	2544.203347	1.156091	0.039499	2.897464
136.551484	2555.214531	1.161096	0.039420	2.903132
136.857124	2566.256970	1.166101	0.039360	2.908790
137.105172	2577.275429	1.171106	0.039311	2.914416
137.425209	2588.292827	1.176110	0.039248	2.920041
137.526950	2599.336714	1.181115	0.039226	2.925635
137.997912	2610.326282	1.186120	0.039135	2.931248
138.305062	2621.327827	1.191125	0.039075	2.936830
138.833280	2632.338648	1.196129	0.038973	2.942441
139.191811	2643.372286	1.201134	0.038903	2.948026
139.634812	2654.411554	1.206139	0.038817	2.953616
139.760195	2665.428006	1.211143	0.038791	2.959137
140.147391	2676.448978	1.216148	0.038715	2.964688
140.317509	2687.479664	1.221153	0.038681	2.970201
140.460717	2698.503332	1.226158	0.038651	2.975697
140.743181	2709.496537	1.231162	0.038595	2.981188
141.162937	2720.488999	1.236167	0.038514	2.986688
141.604700	2731.520864	1.241172	0.038428	2.992202
142.110434	2742.539042	1.246177	0.038331	2.997708
142.427491	2753.558769	1.251181	0.038268	3.003176
142.708572	2764.614242	1.256186	0.038213	3.008647
142.857652	2775.601144	1.261191	0.038182	3.014055
143.260928	2786.621501	1.266195	0.038104	3.019506
143.459760	2797.652676	1.271200	0.038064	3.024923
143.960762	2808.641932	1.276205	0.037967	3.030354
144.191097	2819.687095	1.281210	0.037921	3.035763
144.636139	2830.686561	1.286214	0.037835	3.041172
144.885450	2841.724131	1.291219	0.037785	3.046560
145.254188	2852.725128	1.296224	0.037713	3.051939
145.557060	2863.727477	1.301228	0.037654	3.057299
146.089674	2874.756647	1.306233	0.037551	3.062696
146.239388	2885.794863	1.311238	0.037520	3.068032
146.527133	2896.824319	1.316243	0.037464	3.073375
146.707186	2907.813537	1.321247	0.037427	3.078673
147.189338	2918.823325	1.326252	0.037334	3.084016
147.445796	2929.862316	1.331257	0.037283	3.089331
147.831090	2940.876445	1.336262	0.037208	3.094643
148.175835	2951.885884	1.341266	0.037141	3.099938
148.458925	2962.916376	1.346271	0.037085	3.105225
148.836984	2973.926666	1.351276	0.037011	3.110507
149.150187	2984.940995	1.356280	0.036950	3.115772
149.445378	2995.952549	1.361285	0.036892	3.121025
149.856419	3006.989106	1.366290	0.036812	3.126297
150.020693	3018.006239	1.371295	0.036778	3.131516
150.443188	3028.982416	1.376299	0.036696	3.136743
150.914741	3040.016084	1.381304	0.036605	3.141995
151.166288	3051.062860	1.386309	0.036555	3.147214
151.572765	3062.060706	1.391314	0.036476	3.152423
151.672091	3073.113243	1.396318	0.036455	3.157607
151.901524	3084.093029	1.401323	0.036409	3.162765
152.195623	3095.124982	1.406328	0.036351	3.167949
152.488197	3106.139512	1.411332	0.036293	3.173115
152.951559	3117.145214	1.416337	0.036204	3.178293
152.968316	3128.198145	1.421342	0.036198	3.183423
153.236590	3139.188087	1.426347	0.036145	3.188549
153.528472	3150.214788	1.431351	0.036087	3.193688
153.905908	3161.204852	1.436356	0.036014	3.198813
154.317070	3172.247856	1.441361	0.035934	3.203958
154.434985	3183.279571	1.446366	0.035909	3.209051
154.726087	3194.267064	1.451370	0.035852	3.214138
154.989884	3205.290409	1.456375	0.035799	3.219230
155.232606	3216.316444	1.461380	0.035751	3.224312
155.540440	3227.331702	1.466384	0.035691	3.229390
155.684874	3238.351679	1.471389	0.035661	3.234441
156.036306	3249.347010	1.476394	0.035592	3.239499
156.248925	3260.391055	1.481399	0.035549	3.244554
156.604693	3271.390613	1.486403	0.035480	3.249599
156.932160	3282.402015	1.491408	0.035416	3.254638
157.300707	3293.419678	1.496413	0.035344	3.259677
157.474005	3304.463963	1.501417	0.035309	3.264695
157.746989	3315.469789	1.506422	0.035255	3.269701
157.982019	3326.473862	1.511427	0.035208	3.274693
158.387928	3337.498693	1.516432	0.035129	3.279709
158.697100	3348.524053	1.521436	0.035068	3.284706
158.871125	3359.539771	1.526441	0.035033	3.289672
159.066299	3370.546049	1.531446	0.034994	3.294630
159.428732	3381.556922	1.536451	0.034923	3.299604
159.917646	3392.575245	1.541455	0.034828	3.304589
160.108528	3403.592736	1.546460	0.034790	3.309529
160.250749	3414.635833	1.551465	0.034760	3.314466
160.564916	3425.638881	1.556469	0.034699	3.319400
160.764448	3436.651812	1.561474	0.034659	3.324317
161.115944	3447.666970	1.566479	0.034590	3.329246
161.280260	3458.672189	1.571484	0.034556	3.334140
161.647685	3469.693401	1.576488	0.034485	3.339060
161.882937	3480.716296	1.581493	0.034438	3.343956
162.240904	3491.713779	1.586498	0.034368	3.348849
162.403314	3502.764515	1.591503	0.034335	3.353734
162.703728	3513.768397	1.596507	0.034276	3.358608
162.929643	3524.784661	1.601512	0.034230	3.363472
163.273723	3535.805183	1.606517	0.034163	3.368345
163.647472	3546.800813	1.611521	0.034090	3.373203
163.910950	3557.829373	1.616526	0.034038	3.378055
164.201223	3568.834306	1.621531	0.033981	3.382893
164.683530	3579.845835	1.626536	0.033888	3.387751
165.243197	3590.882106	1.631540	0.033780	3.392622
165.475402	3601.879819	1.636545	0.033734	3.397429
165.659136	3612.935697	1.641550	0.033696	3.402248
166.088576	3623.918565	1.646555	0.033613	3.407059
166.308702	3634.957765	1.651559	0.033569	3.411862
166.758568	3645.936357	1.656564	0.033482	3.416659
167.063812	3656.984149	1.661569	0.033422	3.421462
167.214881	3667.980459	1.666573	0.033391	3.426218
167.502895	3679.022368	1.671578	0.033334	3.431003
168.208302	3689.980735	1.676583	0.033199	3.435795
168.699701	3701.037050	1.681588	0.033104	3.440597
168.903272	3712.062198	1.686592	0.033063	3.445345
169.381502	3723.089478	1.691597	0.032971	3.450120
169.488825	3734.080823	1.696602	0.032948	3.454828
169.995640	3745.087413	1.701606	0.032850	3.459584
170.306231	3756.141083	1.706611	0.032789	3.464330
170.645335	3767.159755	1.711616	0.032723	3.469058
171.014934	3778.128762	1.716621	0.032651	3.473762
171.191986	3789.195441	1.721625	0.032615	3.478478
171.445241	3800.178940	1.726630	0.032564	3.483162
171.733059	3811.221861	1.731635	0.032508	3.487868
171.934026	3822.221006	1.736640	0.032467	3.492540
172.163963	3833.253034	1.741644	0.032421	3.497222
172.311863	3844.247666	1.746649	0.032391	3.501873
172.550843	3855.292257	1.751654	0.032343	3.506549
172.907088	3866.264767	1.756658	0.032274	3.511202
173.103440	3877.304007	1.761663	0.032234	3.515859
173.422503	3888.310438	1.766668	0.032172	3.520509
173.861927	3899.341462	1.771673	0.032086	3.525177
174.073301	3910.364409	1.776677	0.032044	3.529810
174.202175	3921.375085	1.781682	0.032017	3.534422
174.645487	3932.365801	1.786687	0.031931	3.539056
175.046095	3943.398673	1.791692	0.031853	3.543696
175.406124	3954.409302	1.796696	0.031783	3.548316
175.604621	3965.448268	1.801701	0.031743	3.552923
175.719834	3976.439175	1.806706	0.031719	3.557495
175.991270	3987.455656	1.811710	0.031665	3.562090
176.207798	3998.483310	1.816715	0.031622	3.566676
176.439515	4009.496315	1.821720	0.031575	3.571253
176.667700	4020.506445	1.826725	0.031530	3.575822
176.817460	4031.529230	1.831729	0.031499	3.580382
177.234248	4042.524786	1.836734	0.031418	3.584954
177.399811	4053.580182	1.841739	0.031384	3.589517
177.725913	4064.561843	1.846744	0.031320	3.594062
178.164872	4075.580791	1.851748	0.031235	3.598628
178.411269	4086.619910	1.856753	0.031186	3.603176
178.704320	4097.676767	1.861758	0.031129	3.607730
179.000412	4108.665985	1.866762	0.031070	3.612252
179.281067	4119.699395	1.871767	0.031015	3.616784
179.666546	4130.701324	1.876772	0.030940	3.621308
179.801019	4141.755026	1.881777	0.030912	3.625821
180.092014	4152.724881	1.886781	0.030855	3.630311
180.272635	4163.785619	1.891786	0.030818	3.634821
180.351889	4174.770044	1.896791	0.030800	3.639283
180.587792	4185.812121	1.901795	0.030753	3.643779
180.884491	4196.804058	1.906800	0.030695	3.648257
181.281264	4207.827370	1.911805	0.030618	3.652752
181.540713	4218.835093	1.916810	0.030566	3.657220
181.761912	4229.859632	1.921814	0.030522	3.661686
181.944531	4240.883940	1.926819	0.030485	3.666142
182.112743	4251.882098	1.931824	0.030451	3.670580
182.473601	4262.914608	1.936829	0.030381	3.675048
182.568976	4273.927040	1.941833	0.030360	3.679473
182.810723	4284.933879	1.946838	0.030312	3.683907
182.975068	4295.976060	1.951843	0.030278	3.688341
183.141709	4306.952884	1.956847	0.030244	3.692744
183.612472	4317.965118	1.961852	0.030153	3.697188
183.832085	4328.989283	1.966857	0.030109	3.701604
184.051974	4340.011044	1.971862	0.030065	3.706015
184.209088	4351.027154	1.976866	0.030033	3.710411
184.402239	4362.048649	1.981871	0.029994	3.714808
184.688090	4373.026163	1.986876	0.029938	3.719192
184.861024	4384.100651	1.991881	0.029903	3.723598
185.269056	4395.072862	1.996885	0.029823	3.727982
185.440398	4406.122142	2.001890	0.029788	3.732366
185.654070	4417.126909	2.006895	0.029746	3.736733
