Wed Nov 23 18:09:14 2022

Number of Points = 2200
Depth (nm)	Load (µN)	Time (s)	Depth (V)	Load (V)
-1.329964	1.960457	0.000000	0.003841	1.048376
0.000000	8.090274	0.005005	0.003590	1.057616
1.504079	17.258536	0.010009	0.003306	1.071039
3.072622	27.906246	0.015014	0.003009	1.086331
5.436227	38.721127	0.020019	0.002563	1.102023
7.909452	49.803396	0.025024	0.002096	1.117897
10.312329	60.968404	0.030028	0.001642	1.133620
12.410851	72.166923	0.035033	0.001246	1.149026
14.326442	83.309010	0.040038	0.000883	1.164071
16.611489	94.398662	0.045043	0.000452	1.179026
18.386436	105.594293	0.050047	0.000116	1.193693
20.278846	116.708017	0.055052	-0.000242	1.208132
21.699142	127.912839	0.060057	-0.000511	1.222302
23.431832	138.979838	0.065061	-0.000839	1.236280
25.162123	150.054360	0.070066	-0.001166	1.250108
26.625587	161.235327	0.075071	-0.001444	1.263795
28.151466	172.313247	0.080076	-0.001733	1.277241
29.613142	183.425498	0.085080	-0.002010	1.290559
30.953610	194.584436	0.090085	-0.002264	1.303743
32.235125	205.652308	0.095090	-0.002507	1.316668
33.703461	216.672419	0.100094	-0.002786	1.329489
35.021864	227.806483	0.105099	-0.003036	1.342252
36.445380	238.848936	0.110104	-0.003306	1.354835
37.758344	249.954574	0.115109	-0.003555	1.367327
39.220410	261.010826	0.120113	-0.003832	1.379710
40.427935	272.124426	0.125118	-0.004061	1.391945
41.691891	283.203080	0.130123	-0.004301	1.404057
42.977916	294.266774	0.135128	-0.004545	1.416058
44.230205	305.328245	0.140132	-0.004783	1.427942
45.422931	316.429640	0.145137	-0.005009	1.439747
46.820232	327.450365	0.150142	-0.005274	1.451447
47.975262	338.566792	0.155146	-0.005494	1.463062
49.091366	349.622644	0.160151	-0.005706	1.474510
50.417784	360.648671	0.165156	-0.005957	1.485915
51.572448	371.751821	0.170161	-0.006177	1.497247
52.988827	382.758457	0.175165	-0.006445	1.508491
54.272056	393.849778	0.180170	-0.006689	1.519686
55.238838	404.957753	0.185175	-0.006873	1.530706
56.656181	415.952300	0.190180	-0.007142	1.541693
57.742190	427.059914	0.195184	-0.007348	1.552596
58.646339	438.151920	0.200189	-0.007521	1.563346
59.762920	449.168556	0.205194	-0.007733	1.574023
60.876050	460.193125	0.210198	-0.007945	1.584633
61.673426	471.338221	0.215203	-0.008097	1.595180
62.756105	482.331579	0.220208	-0.008303	1.605611
63.800693	493.390107	0.225213	-0.008502	1.616021
64.928799	504.447694	0.230217	-0.008716	1.626390
66.210232	515.435506	0.235222	-0.008959	1.636679
66.930752	526.579295	0.240227	-0.009097	1.646865
67.929727	537.594446	0.245232	-0.009287	1.656961
69.029733	548.602477	0.250236	-0.009496	1.667021
69.996021	559.682955	0.255241	-0.009680	1.677041
71.075823	570.726882	0.260246	-0.009886	1.687005
72.136719	581.784060	0.265250	-0.010088	1.696916
73.023892	592.826601	0.270255	-0.010257	1.706703
73.916926	603.870421	0.275260	-0.010427	1.716436
75.099748	614.884725	0.280265	-0.010652	1.726176
76.074856	625.962893	0.285269	-0.010837	1.735853
76.945011	637.000180	0.290274	-0.011003	1.745411
77.823833	648.064333	0.295279	-0.011171	1.754941
78.642891	659.113556	0.300283	-0.011328	1.764389
79.600818	670.115048	0.305288	-0.011510	1.773787
80.553047	681.168711	0.310293	-0.011691	1.783177
81.419590	692.227280	0.315298	-0.011857	1.792496
82.267696	703.259986	0.320302	-0.012019	1.801740
83.150610	714.298974	0.325307	-0.012187	1.810952
84.041932	725.339731	0.330312	-0.012357	1.820121
84.671299	736.414550	0.335317	-0.012478	1.829197
85.780523	747.382592	0.340321	-0.012689	1.838276
86.520278	758.469558	0.345326	-0.012830	1.847303
87.366887	769.513357	0.350331	-0.012992	1.856280
88.303962	780.521681	0.355335	-0.013170	1.865211
88.954505	791.586065	0.360340	-0.013295	1.874064
89.725913	802.632527	0.365345	-0.013443	1.882895
90.731770	813.591817	0.370350	-0.013634	1.891679
91.721044	824.685794	0.375354	-0.013822	1.900522
92.835932	835.656269	0.380359	-0.014034	1.909263
93.793565	846.762292	0.385364	-0.014217	1.918024
94.402578	857.825909	0.390369	-0.014334	1.926621
95.114694	868.822757	0.395373	-0.014470	1.935157
95.934592	879.860965	0.400378	-0.014627	1.943714
96.679170	890.893750	0.405383	-0.014769	1.952209
97.667516	901.912610	0.410387	-0.014957	1.960720
98.277739	912.965902	0.415392	-0.015075	1.969121
99.280685	923.978932	0.420397	-0.015266	1.977558
100.074295	935.025520	0.425402	-0.015417	1.985930
100.978070	946.046327	0.430406	-0.015590	1.994275
101.607769	957.096277	0.435411	-0.015710	2.002538
102.486502	968.127005	0.440416	-0.015878	2.010814
102.980198	979.200545	0.445421	-0.015973	2.018991
103.661796	990.194800	0.450425	-0.016104	2.027125
104.423762	1001.235421	0.455430	-0.016250	2.035279
105.419741	1012.208762	0.460435	-0.016439	2.043409
105.961771	1023.322540	0.465439	-0.016544	2.051496
106.903698	1034.303369	0.470444	-0.016723	2.059554
107.442702	1045.376100	0.475449	-0.016827	2.067547
108.138912	1056.418474	0.480454	-0.016961	2.075526
108.978879	1067.392809	0.485458	-0.017121	2.083461
109.900475	1078.434009	0.490463	-0.017296	2.091431
110.599051	1089.505652	0.495468	-0.017430	2.099340
111.634052	1100.459352	0.500472	-0.017627	2.107215
112.026284	1111.584330	0.505477	-0.017704	2.115029
112.937421	1122.532277	0.510482	-0.017877	2.122813
113.561214	1133.615857	0.515487	-0.017997	2.130594
114.326296	1144.619358	0.520491	-0.018143	2.138325
114.887546	1155.683372	0.525496	-0.018251	2.146021
115.603300	1166.680956	0.530501	-0.018388	2.153681
116.299228	1177.710515	0.535506	-0.018522	2.161330
117.014682	1188.734295	0.540510	-0.018659	2.168952
117.860172	1199.759311	0.545515	-0.018820	2.176578
118.647988	1210.798144	0.550520	-0.018971	2.184173
119.184374	1221.840192	0.555524	-0.019074	2.191687
119.891891	1232.869504	0.560529	-0.019210	2.199205
120.519140	1243.885128	0.565534	-0.019330	2.206670
121.372206	1254.877330	0.570539	-0.019493	2.214144
122.036065	1265.947640	0.575543	-0.019620	2.221603
122.692215	1276.949394	0.580548	-0.019746	2.228989
123.341051	1287.997195	0.585553	-0.019870	2.236380
123.933038	1299.040037	0.590558	-0.019984	2.243730
124.524409	1310.056258	0.595562	-0.020098	2.251038
125.129147	1321.099525	0.600567	-0.020214	2.258343
125.656295	1332.104358	0.605572	-0.020316	2.265583
126.473760	1343.104213	0.610576	-0.020472	2.272858
127.028159	1354.158789	0.615581	-0.020579	2.280089
127.892834	1365.145380	0.620586	-0.020744	2.287320
128.542104	1376.199140	0.625591	-0.020868	2.294524
129.181952	1387.221937	0.630595	-0.020991	2.301684
129.701623	1398.263013	0.635600	-0.021091	2.308808
130.366892	1409.264468	0.640605	-0.021219	2.315915
131.040854	1420.297669	0.645610	-0.021348	2.323022
131.771384	1431.322640	0.650614	-0.021488	2.330114
132.191043	1442.388814	0.655619	-0.021569	2.337145
132.847446	1453.376062	0.660624	-0.021695	2.344155
133.417814	1464.410445	0.665628	-0.021805	2.351155
134.058903	1475.408976	0.670633	-0.021928	2.358127
134.516144	1486.473093	0.675638	-0.022016	2.365080
135.212815	1497.471713	0.680643	-0.022150	2.372022
135.816437	1508.493259	0.685647	-0.022266	2.378938
136.480110	1519.507938	0.690652	-0.022393	2.385842
136.979600	1530.569073	0.695657	-0.022490	2.392721
137.717474	1541.549836	0.700661	-0.022631	2.399579
138.332288	1552.601049	0.705666	-0.022749	2.406435
138.896992	1563.642784	0.710671	-0.022858	2.413256
139.478507	1574.632669	0.715676	-0.022969	2.420030
140.031342	1585.665189	0.720680	-0.023076	2.426804
140.486806	1596.706534	0.725685	-0.023164	2.433546
141.034656	1607.714339	0.730690	-0.023270	2.440266
141.641073	1618.716420	0.735695	-0.023386	2.446976
142.411485	1629.774251	0.740699	-0.023533	2.453733
142.921611	1640.764525	0.745704	-0.023632	2.460380
143.473349	1651.820637	0.750709	-0.023738	2.467057
143.729212	1662.876549	0.755713	-0.023789	2.473658
144.503939	1673.806899	0.760718	-0.023937	2.480266
145.024871	1684.882732	0.765723	-0.024037	2.486894
145.642144	1695.922198	0.770728	-0.024156	2.493502
146.048967	1706.923963	0.775732	-0.024235	2.500029
146.582567	1717.955101	0.780737	-0.024338	2.506581
147.057534	1728.972170	0.785742	-0.024430	2.513096
147.768835	1739.976354	0.790747	-0.024566	2.519631
148.180931	1751.020757	0.795751	-0.024646	2.526116
148.755503	1762.041325	0.800756	-0.024756	2.532601
149.118371	1773.057541	0.805761	-0.024827	2.539027
149.886212	1784.054534	0.810765	-0.024974	2.545501
150.462523	1795.106999	0.815770	-0.025085	2.551954
150.749832	1806.151498	0.820775	-0.025142	2.558334
151.544871	1817.105376	0.825780	-0.025294	2.564739
152.106085	1828.180783	0.830784	-0.025402	2.571154
152.461116	1839.265949	0.835789	-0.025471	2.577521
153.110263	1850.186474	0.840794	-0.025595	2.583832
153.616141	1861.223376	0.845799	-0.025693	2.590167
154.182113	1872.250463	0.850803	-0.025802	2.596492
154.501187	1883.297939	0.855808	-0.025865	2.602769
155.159124	1894.274961	0.860813	-0.025991	2.609052
155.729123	1905.313308	0.865817	-0.026100	2.615338
156.380963	1916.310626	0.870822	-0.026226	2.621600
156.999506	1927.333695	0.875827	-0.026344	2.627856
157.543609	1938.403386	0.880832	-0.026449	2.634109
157.880078	1949.400075	0.885836	-0.026515	2.640271
158.636190	1960.400030	0.890841	-0.026660	2.646493
158.959675	1971.473600	0.895846	-0.026723	2.652665
159.303106	1982.463532	0.900850	-0.026790	2.658781
159.714453	1993.484962	0.905855	-0.026870	2.664911
160.240623	2004.520983	0.910860	-0.026972	2.671055
160.793065	2015.506814	0.915865	-0.027078	2.677162
161.432780	2026.541788	0.920869	-0.027201	2.683297
161.826879	2037.562318	0.925874	-0.027277	2.689367
162.461442	2048.551270	0.930879	-0.027399	2.695448
162.927127	2059.599573	0.935884	-0.027489	2.701518
163.364845	2070.603579	0.940888	-0.027574	2.707546
163.550999	2081.658093	0.945893	-0.027612	2.713544
164.146151	2092.616679	0.950898	-0.027726	2.719547
164.753007	2103.650651	0.955902	-0.027843	2.725579
165.395866	2114.676967	0.960907	-0.027966	2.731600
165.811467	2125.715075	0.965912	-0.028047	2.737575
166.435699	2136.711804	0.970917	-0.028167	2.743550
166.728191	2147.749250	0.975921	-0.028224	2.749478
167.212011	2158.776270	0.980926	-0.028318	2.755420
167.632390	2169.769763	0.985931	-0.028399	2.761320
168.283160	2180.799744	0.990936	-0.028524	2.767265
168.797963	2191.820966	0.995940	-0.028624	2.773170
169.344254	2202.819136	1.000945	-0.028729	2.779055
169.773888	2213.871124	1.005950	-0.028812	2.784937
170.154706	2224.888955	1.010954	-0.028886	2.790780
170.694677	2235.898148	1.015959	-0.028990	2.796633
171.152582	2246.951796	1.020964	-0.029079	2.802483
171.449068	2257.937182	1.025969	-0.029137	2.808259
172.139112	2268.943572	1.030973	-0.029270	2.814097
172.508567	2279.982759	1.035978	-0.029342	2.819889
173.127985	2290.973115	1.040983	-0.029461	2.825683
173.511014	2302.049047	1.045988	-0.029535	2.831472
173.805634	2313.039792	1.050992	-0.029593	2.837191
174.268746	2324.058077	1.055997	-0.029683	2.842939
174.708867	2335.082603	1.061002	-0.029768	2.848675
175.189007	2346.081599	1.066006	-0.029861	2.854393
175.857984	2357.095131	1.071011	-0.029989	2.860136
176.257263	2368.130171	1.076016	-0.030067	2.865836
176.929454	2379.150964	1.081021	-0.030196	2.871561
177.090686	2390.198547	1.086025	-0.030229	2.877207
177.513180	2401.184170	1.091030	-0.030311	2.882852
178.059245	2412.205739	1.096035	-0.030416	2.888522
178.433362	2423.238025	1.101039	-0.030489	2.894161
178.924651	2434.229179	1.106044	-0.030584	2.899785
179.444343	2445.259620	1.111049	-0.030684	2.905423
179.865284	2456.300000	1.116054	-0.030766	2.911040
180.348077	2467.287287	1.121058	-0.030859	2.916628
180.674297	2478.327098	1.126063	-0.030923	2.922208
181.201120	2489.331672	1.131068	-0.031025	2.927790
181.765867	2500.350707	1.136073	-0.031133	2.933374
182.130749	2511.378116	1.141077	-0.031205	2.938922
182.393904	2522.414934	1.146082	-0.031257	2.944448
182.909464	2533.394318	1.151087	-0.031356	2.949973
183.517440	2544.426810	1.156091	-0.031473	2.955528
184.031670	2555.449094	1.161096	-0.031572	2.961054
184.552719	2566.455024	1.166101	-0.031673	2.966562
185.006001	2577.494875	1.171106	-0.031760	2.972066
185.475787	2588.489060	1.176110	-0.031851	2.977539
185.984854	2599.522731	1.181115	-0.031950	2.983028
186.397464	2610.542571	1.186120	-0.032030	2.988486
186.803704	2621.552978	1.191125	-0.032109	2.993928
187.187225	2632.590714	1.196129	-0.032183	2.999370
187.550468	2643.599207	1.201134	-0.032254	3.004785
188.232314	2654.592712	1.206139	-0.032385	3.010229
188.870916	2665.614064	1.211143	-0.032507	3.015670
189.186940	2676.658539	1.216148	-0.032569	3.021066
189.743911	2687.659367	1.221153	-0.032677	3.026466
190.083615	2698.686544	1.226158	-0.032743	3.031837
190.658236	2709.689391	1.231162	-0.032854	3.037221
191.122373	2720.718749	1.236167	-0.032944	3.042592
191.401136	2731.767432	1.241172	-0.032999	3.047936
191.773276	2742.761697	1.246177	-0.033071	3.053258
192.326515	2753.764093	1.251181	-0.033178	3.058601
192.854818	2764.760381	1.256186	-0.033280	3.063927
193.396189	2775.821661	1.261191	-0.033384	3.069277
193.847178	2786.826582	1.266195	-0.033471	3.074578
194.295512	2797.843224	1.271200	-0.033558	3.079875
194.708195	2808.866824	1.276205	-0.033638	3.085161
195.284476	2819.882472	1.281210	-0.033749	3.090456
195.648491	2830.896450	1.286214	-0.033820	3.095713
195.991131	2841.915327	1.291219	-0.033887	3.100959
196.355665	2852.930189	1.296224	-0.033958	3.106198
196.752868	2863.952413	1.301228	-0.034035	3.111436
197.007668	2874.977013	1.306233	-0.034086	3.116646
197.659184	2885.964255	1.311238	-0.034211	3.121885
197.881333	2897.026767	1.316243	-0.034255	3.127091
198.414656	2908.021232	1.321247	-0.034358	3.132299
198.700669	2919.042808	1.326252	-0.034415	3.137477
199.349977	2930.048213	1.331257	-0.034539	3.142688
199.641730	2941.084516	1.336262	-0.034597	3.147857
200.144522	2952.086271	1.341266	-0.034694	3.153029
200.374195	2963.121030	1.346271	-0.034740	3.158172
200.998615	2974.104009	1.351276	-0.034859	3.163335
201.410799	2985.160742	1.356280	-0.034940	3.168495
201.930235	2996.128072	1.361285	-0.035040	3.173620
202.198050	3007.199843	1.366290	-0.035093	3.178750
202.673652	3018.179693	1.371295	-0.035185	3.183858
203.083862	3029.234823	1.376299	-0.035264	3.188984
203.403491	3040.236216	1.381304	-0.035327	3.194064
203.947487	3051.238903	1.386309	-0.035432	3.199167
204.494154	3062.257580	1.391314	-0.035537	3.204269
204.825076	3073.299937	1.396318	-0.035602	3.209345
205.369266	3084.274411	1.401323	-0.035707	3.214410
205.818013	3095.312901	1.406328	-0.035794	3.219483
206.163837	3106.322512	1.411332	-0.035861	3.224522
206.484987	3117.352675	1.416337	-0.035924	3.229559
206.965732	3128.355801	1.421342	-0.036017	3.234597
207.294050	3139.392061	1.426347	-0.036082	3.239622
207.764353	3150.377941	1.431351	-0.036173	3.244635
208.252020	3161.435316	1.436356	-0.036267	3.249674
208.845770	3172.392305	1.441361	-0.036381	3.254674
209.176444	3183.455384	1.446366	-0.036446	3.259680
209.544395	3194.462358	1.451370	-0.036518	3.264657
209.784544	3205.497917	1.456375	-0.036565	3.269624
210.265293	3216.488038	1.461380	-0.036658	3.274593
210.739129	3227.525341	1.466384	-0.036750	3.279575
211.181916	3238.519988	1.471389	-0.036836	3.284526
211.494077	3249.585056	1.476394	-0.036897	3.289484
211.729058	3260.557474	1.481399	-0.036944	3.294384
212.288424	3271.576180	1.486403	-0.037051	3.299338
212.723813	3282.591452	1.491408	-0.037136	3.304268
213.218580	3293.607466	1.496413	-0.037231	3.309197
213.544813	3304.627281	1.501417	-0.037295	3.314100
213.913313	3315.670918	1.506422	-0.037367	3.319011
214.413792	3326.642802	1.511427	-0.037464	3.323900
214.980132	3337.685985	1.516432	-0.037573	3.328821
215.353247	3348.679531	1.521436	-0.037646	3.333689
215.729037	3359.735132	1.526441	-0.037719	3.338577
216.056673	3370.736573	1.531446	-0.037783	3.343428
216.433116	3381.749879	1.536451	-0.037856	3.348284
217.090828	3392.749882	1.541455	-0.037983	3.353160
217.462832	3403.787974	1.546460	-0.038055	3.358012
218.016749	3414.769061	1.551465	-0.038162	3.362853
218.610712	3425.830857	1.556469	-0.038276	3.367728
219.037237	3436.806248	1.561474	-0.038359	3.372537
219.402588	3447.872581	1.566479	-0.038430	3.377372
219.770223	3458.852574	1.571484	-0.038502	3.382162
220.207350	3469.880479	1.576488	-0.038586	3.386975
220.614853	3480.869695	1.581493	-0.038666	3.391760
220.995655	3491.928725	1.586498	-0.038740	3.396565
221.522587	3502.919492	1.591503	-0.038841	3.401352
221.698134	3513.973740	1.596507	-0.038877	3.406117
222.253201	3524.930915	1.601512	-0.038984	3.410879
222.613802	3536.000977	1.606517	-0.039054	3.415659
223.013461	3546.974453	1.611521	-0.039132	3.420397
223.465387	3558.027381	1.616526	-0.039220	3.425167
223.978956	3569.018252	1.621531	-0.039319	3.429911
224.423021	3580.049184	1.626536	-0.039405	3.434658
225.131655	3591.034516	1.631540	-0.039540	3.439410
225.579969	3602.076600	1.636545	-0.039627	3.444148
226.119828	3613.092142	1.641550	-0.039731	3.448880
226.401934	3624.119713	1.646555	-0.039787	3.453580
226.723122	3635.102302	1.651559	-0.039850	3.458259
227.301926	3646.136640	1.656564	-0.039961	3.462983
227.804894	3657.152554	1.661569	-0.040058	3.467684
228.159617	3668.165892	1.666573	-0.040128	3.472360
228.474660	3679.204534	1.671578	-0.040190	3.477037
228.882302	3690.196537	1.676583	-0.040269	3.481697
229.400445	3701.208486	1.681588	-0.040369	3.486373
229.904563	3712.239535	1.686592	-0.040466	3.491048
230.168077	3723.240858	1.691597	-0.040518	3.495678
230.673575	3734.270414	1.696602	-0.040616	3.500340
231.074230	3745.267252	1.701606	-0.040694	3.504971
231.567360	3756.301889	1.706611	-0.040789	3.509621
231.995017	3767.306296	1.711616	-0.040872	3.514245
232.665781	3778.334880	1.716621	-0.041001	3.518901
233.111550	3789.344751	1.721625	-0.041087	3.523517
233.521916	3800.380567	1.726630	-0.041167	3.528134
233.652182	3811.400468	1.731635	-0.041194	3.532707
234.141040	3822.392357	1.736640	-0.041288	3.537302
234.572351	3833.384987	1.741644	-0.041372	3.541885
234.931639	3844.465504	1.746649	-0.041442	3.546490
235.324889	3855.419507	1.751654	-0.041519	3.551041
235.797072	3866.458677	1.756658	-0.041610	3.555630
236.315278	3877.462880	1.761663	-0.041710	3.560204
236.742748	3888.499967	1.766668	-0.041793	3.564774
237.181257	3899.485312	1.771673	-0.041878	3.569319
237.636376	3910.532574	1.776677	-0.041966	3.573886
238.036806	3921.532503	1.781682	-0.042044	3.578421
238.249380	3932.571680	1.786687	-0.042086	3.582945
238.765581	3943.547777	1.791692	-0.042186	3.587472
239.046974	3954.603904	1.796696	-0.042242	3.591999
239.464505	3965.587981	1.801701	-0.042323	3.596507
239.868440	3976.611395	1.806706	-0.042401	3.601022
240.294229	3987.642433	1.811710	-0.042484	3.605538
240.891738	3998.627419	1.816715	-0.042599	3.610048
241.188158	4009.663272	1.821720	-0.042657	3.614540
241.632478	4020.677800	1.826725	-0.042743	3.619034
242.231175	4031.688801	1.831729	-0.042858	3.623537
242.682196	4042.728265	1.836734	-0.042945	3.628030
242.986923	4053.714043	1.841739	-0.043005	3.632481
243.203776	4064.761643	1.846744	-0.043049	3.636941
243.523493	4075.735149	1.851748	-0.043112	3.641377
244.338483	4086.768908	1.856753	-0.043267	3.645884
244.518892	4097.812992	1.861758	-0.043304	3.650323
244.856915	4108.862880	1.866762	-0.043370	3.654775
245.209336	4119.857033	1.871767	-0.043439	3.659200
245.804860	4130.869246	1.876772	-0.043553	3.663653
246.212655	4141.902973	1.881777	-0.043632	3.668090
246.638418	4152.933155	1.886781	-0.043715	3.672521
247.062350	4163.913821	1.891786	-0.043797	3.676927
247.453924	4174.966082	1.896791	-0.043874	3.681353
247.616669	4185.960010	1.901795	-0.043907	3.685726
248.087068	4196.972252	1.906800	-0.043998	3.690134
248.539039	4207.980745	1.911805	-0.044085	3.694532
249.224000	4218.988096	1.916810	-0.044217	3.698949
249.518209	4230.044109	1.921814	-0.044275	3.703340
249.786588	4241.052794	1.926819	-0.044328	3.707704
250.178550	4252.047439	1.931824	-0.044404	3.712069
250.781604	4263.065938	1.936829	-0.044520	3.716461
251.232828	4274.050493	1.941833	-0.044607	3.720818
251.763976	4285.106571	1.946838	-0.044710	3.725206
252.197868	4296.084762	1.951843	-0.044794	3.729549
252.640009	4307.134704	1.956847	-0.044879	3.733916
253.148605	4318.121697	1.961852	-0.044978	3.738259
253.436103	4329.181141	1.966857	-0.045034	3.742603
