Wed Nov 23 19:06:18 2022

Number of Points = 2200
Depth (nm)	Load (µN)	Time (s)	Depth (V)	Load (V)
-5.591131	0.293373	0.000000	0.049648	0.909606
0.000000	5.869524	0.005005	0.048597	0.921964
4.616861	14.969843	0.010009	0.047729	0.939146
8.166846	25.804480	0.015014	0.047060	0.958082
10.701603	37.177386	0.020019	0.046582	0.976892
12.434525	48.589899	0.025024	0.046254	0.994962
13.946450	59.900009	0.030028	0.045967	1.012439
15.036116	71.179236	0.035033	0.045760	1.029350
16.179674	82.379277	0.040038	0.045542	1.045903
17.193645	93.572404	0.045043	0.045349	1.062120
18.133383	104.754255	0.050047	0.045170	1.078040
18.915045	115.925432	0.055052	0.045021	1.093634
19.624621	127.113391	0.060057	0.044885	1.108996
23.105441	137.484236	0.065061	0.044229	1.124414
26.495100	148.752709	0.070066	0.043590	1.140740
28.374536	160.131462	0.075071	0.043235	1.156265
30.410553	171.273535	0.080076	0.042850	1.171357
31.982219	182.505804	0.085080	0.042552	1.186155
33.660637	193.613307	0.090085	0.042235	1.200665
35.014938	204.787518	0.095090	0.041978	1.214937
37.168197	215.736857	0.100094	0.041571	1.229123
38.831853	226.940153	0.105099	0.041256	1.243235
40.362446	238.070794	0.110104	0.040966	1.257045
41.492620	249.248092	0.115109	0.040751	1.270588
42.956798	260.294765	0.120113	0.040474	1.283978
44.254113	271.429029	0.125118	0.040228	1.297258
45.501068	282.565884	0.130123	0.039991	1.310386
46.606364	293.633282	0.135128	0.039781	1.323247
47.869821	304.686695	0.140132	0.039541	1.336032
49.192162	315.749235	0.145137	0.039290	1.348729
50.879030	326.777715	0.150142	0.038971	1.361413
52.184020	337.887942	0.155146	0.038723	1.373917
53.415584	349.035315	0.160151	0.038489	1.386319
54.313588	360.144165	0.165156	0.038318	1.398442
55.617083	371.136233	0.170161	0.038071	1.410492
56.549705	382.293114	0.175165	0.037893	1.422471
57.831008	393.277500	0.180170	0.037650	1.434301
58.783977	404.431048	0.185175	0.037468	1.446086
59.994486	415.467460	0.190180	0.037239	1.457750
61.040685	426.490032	0.195184	0.037040	1.469247
62.471228	437.552037	0.200189	0.036768	1.480832
63.119845	448.735820	0.205194	0.036644	1.492168
64.244219	459.688876	0.210198	0.036430	1.503360
65.801338	470.704925	0.215203	0.036135	1.514681
66.867272	481.842904	0.220208	0.035933	1.525865
67.904869	492.912558	0.225213	0.035735	1.536892
68.862136	503.970879	0.230217	0.035553	1.547801
69.800964	515.033913	0.235222	0.035374	1.558631
70.964683	526.047026	0.240227	0.035153	1.569415
72.023230	537.129266	0.245232	0.034951	1.580154
73.229784	548.148542	0.250236	0.034722	1.590811
74.051398	559.255857	0.255241	0.034565	1.601350
75.249633	570.275259	0.260246	0.034338	1.611863
76.060252	581.380557	0.265250	0.034183	1.622259
77.042954	592.412282	0.270255	0.033996	1.632578
77.714748	603.478079	0.275260	0.033867	1.642763
78.606181	614.523186	0.280265	0.033697	1.652935
79.366252	625.566853	0.285269	0.033552	1.663003
80.209240	636.621197	0.290274	0.033391	1.673045
81.205918	647.620950	0.295279	0.033201	1.683026
82.519300	658.626379	0.300283	0.032952	1.693051
83.189572	669.792209	0.305288	0.032823	1.702957
83.900237	680.814561	0.310293	0.032687	1.712695
84.543092	691.892778	0.315298	0.032564	1.722405
85.397495	702.887049	0.320302	0.032401	1.732052
86.293307	713.913154	0.325307	0.032230	1.741685
87.216580	724.963906	0.330312	0.032054	1.751293
88.001725	736.007382	0.335317	0.031904	1.760801
89.064234	747.032937	0.340321	0.031702	1.770325
89.718081	758.134597	0.345326	0.031576	1.779740
90.660302	769.119065	0.350331	0.031397	1.789093
91.556057	780.149640	0.355335	0.031226	1.798422
92.854316	791.149566	0.360340	0.030980	1.807791
93.777831	802.252915	0.365345	0.030804	1.817090
95.049165	813.217781	0.370350	0.030562	1.826327
95.854655	824.348382	0.375354	0.030409	1.835519
97.071677	835.305709	0.380359	0.030177	1.844641
97.969577	846.424657	0.385364	0.030006	1.853758
98.658718	857.485671	0.390369	0.029874	1.862727
99.402468	868.505302	0.395373	0.029732	1.871634
100.125228	879.532940	0.400378	0.029594	1.880499
100.985343	890.561854	0.405383	0.029429	1.889361
102.108608	901.556953	0.410387	0.029216	1.898226
102.840796	912.640465	0.415392	0.029076	1.907012
103.684119	923.697582	0.420397	0.028915	1.915768
104.579509	934.679685	0.425402	0.028744	1.924439
105.752752	945.695515	0.430406	0.028521	1.933170
106.237748	956.826110	0.435411	0.028427	1.941768
107.042455	967.811521	0.440416	0.028274	1.950301
107.930822	978.826140	0.445421	0.028104	1.958841
108.691260	989.897066	0.450425	0.027959	1.967352
109.404845	1000.933128	0.455430	0.027822	1.975788
110.304410	1011.923427	0.460435	0.027651	1.984202
111.224709	1022.971581	0.465439	0.027475	1.992628
111.888174	1034.054598	0.470444	0.027348	2.000978
112.479196	1045.079392	0.475449	0.027234	2.009232
113.201645	1056.126049	0.480454	0.027096	2.017502
113.550278	1067.183699	0.485458	0.027028	2.025652
114.442080	1078.106718	0.490463	0.026858	2.033806
115.270639	1089.200885	0.495468	0.026700	2.042036
115.837958	1100.260835	0.500472	0.026591	2.050143
116.562849	1111.239350	0.505477	0.026452	2.058199
117.299066	1122.294546	0.510482	0.026311	2.066280
117.730104	1133.356284	0.515487	0.026227	2.074260
118.526014	1144.339425	0.520491	0.026075	2.082241
119.125670	1155.421541	0.525496	0.025960	2.090215
119.889102	1166.410149	0.530501	0.025814	2.098131
120.227396	1177.481373	0.535506	0.025748	2.105974
121.071202	1188.457941	0.540510	0.025587	2.113842
121.569890	1199.496250	0.545515	0.025490	2.121641
122.629265	1210.512008	0.550520	0.025289	2.129528
123.085971	1221.577486	0.555524	0.025201	2.137278
124.020878	1232.568461	0.560529	0.025022	2.145061
124.478034	1243.637938	0.565534	0.024934	2.152758
125.339392	1254.601284	0.570539	0.024770	2.160449
125.893851	1265.714017	0.575543	0.024663	2.168142
126.678953	1276.701389	0.580548	0.024513	2.175777
127.100169	1287.759724	0.585553	0.024431	2.183349
127.806692	1298.749246	0.590558	0.024296	2.190913
128.499680	1309.800516	0.595562	0.024163	2.198489
129.143893	1320.805459	0.600567	0.024039	2.205997
129.632904	1331.878580	0.605572	0.023945	2.213490
130.256026	1342.859060	0.610576	0.023825	2.220926
130.772466	1353.920634	0.615581	0.023725	2.228367
131.514387	1364.908070	0.620586	0.023584	2.235784
132.171961	1375.934266	0.625591	0.023457	2.243183
132.873768	1387.010589	0.630595	0.023323	2.250600
133.632626	1397.987827	0.635600	0.023178	2.257940
134.245210	1409.045068	0.640605	0.023060	2.265276
134.728948	1420.054929	0.645610	0.022967	2.272530
135.730772	1431.055848	0.650614	0.022776	2.279867
136.321658	1442.105623	0.655619	0.022662	2.287122
137.139293	1453.134763	0.660624	0.022506	2.294390
137.664716	1464.145735	0.665628	0.022405	2.301561
138.478371	1475.177110	0.670633	0.022250	2.308783
139.010183	1486.222603	0.675638	0.022147	2.315932
139.736270	1497.241190	0.680643	0.022008	2.323083
140.150452	1508.271395	0.685647	0.021928	2.330153
140.775083	1519.310732	0.690652	0.021808	2.337251
141.194292	1530.333044	0.695657	0.021726	2.344275
141.867562	1541.314589	0.700661	0.021597	2.351304
142.476898	1552.370496	0.705666	0.021480	2.358345
143.083027	1563.383517	0.710671	0.021364	2.365338
143.584347	1574.437088	0.715676	0.021267	2.372314
144.152230	1585.443750	0.720680	0.021158	2.379254
144.519121	1596.485037	0.725685	0.021086	2.386153
145.153344	1607.485920	0.730690	0.020964	2.393062
145.608336	1618.520133	0.735695	0.020876	2.399935
146.357131	1629.509098	0.740699	0.020733	2.406820
147.034017	1640.578131	0.745704	0.020603	2.413719
147.382868	1651.607830	0.750709	0.020535	2.420509
147.867370	1662.600568	0.755713	0.020441	2.427285
148.443754	1673.646220	0.760718	0.020330	2.434091
148.730118	1684.658838	0.765723	0.020274	2.440801
149.577847	1695.666494	0.770728	0.020112	2.447601
150.097206	1706.702392	0.775732	0.020012	2.454333
150.759047	1717.706095	0.780737	0.019885	2.461056
151.307216	1728.748446	0.785742	0.019780	2.467761
151.838541	1739.799339	0.790747	0.019677	2.474449
152.324803	1750.777781	0.795751	0.019583	2.481068
152.894297	1761.824280	0.800756	0.019474	2.487725
153.304749	1772.868624	0.805761	0.019394	2.494332
153.843069	1783.873697	0.810765	0.019290	2.500923
154.277046	1794.890388	0.815770	0.019206	2.507483
155.065158	1805.877296	0.820775	0.019055	2.514076
155.420663	1816.957816	0.825780	0.018986	2.520625
155.873114	1827.967122	0.830784	0.018898	2.527133
156.237193	1839.002646	0.835789	0.018827	2.533622
156.762935	1849.968903	0.840794	0.018726	2.540086
157.507962	1861.001228	0.845799	0.018583	2.546611
158.044760	1872.081166	0.850803	0.018480	2.553109
158.351950	1883.051957	0.855808	0.018419	2.559484
159.118620	1894.074078	0.860813	0.018273	2.565958
159.680092	1905.112110	0.865817	0.018165	2.572387
159.999057	1916.217484	0.870822	0.018102	2.578793
160.434980	1927.154058	0.875827	0.018018	2.585109
160.864434	1938.189578	0.880832	0.017934	2.591464
161.255069	1949.200236	0.885836	0.017858	2.597782
161.634613	1960.232410	0.890841	0.017784	2.604095
161.962774	1971.244954	0.895846	0.017720	2.610373
162.680529	1982.238822	0.900850	0.017583	2.616694
163.176025	1993.292680	0.905855	0.017487	2.622994
163.930752	2004.253870	0.910860	0.017343	2.629274
164.261892	2015.362429	0.915865	0.017278	2.635545
164.630744	2026.346633	0.920869	0.017206	2.641738
165.259308	2037.360269	0.925874	0.017085	2.647979
165.785984	2048.387577	0.930879	0.016984	2.654195
166.042555	2059.394482	0.935884	0.016933	2.660337
166.789653	2070.374193	0.940888	0.016790	2.666536
167.171637	2081.454442	0.945893	0.016715	2.672712
167.799076	2092.424426	0.950898	0.016595	2.678856
168.073041	2103.484629	0.955902	0.016541	2.684973
168.621579	2114.488598	0.960907	0.016435	2.691094
169.227597	2125.492140	0.965912	0.016319	2.697210
169.765667	2136.524008	0.970917	0.016215	2.703315
170.162950	2147.569665	0.975921	0.016138	2.709390
170.514602	2158.569780	0.980926	0.016069	2.715419
171.167764	2169.570744	0.985931	0.015944	2.721487
171.704543	2180.619876	0.990936	0.015840	2.727546
172.155754	2191.648137	0.995940	0.015753	2.733567
172.433033	2202.649628	1.000945	0.015698	2.739530
172.819316	2213.658675	1.005950	0.015623	2.745503
173.541725	2224.681251	1.010954	0.015485	2.751526
173.859847	2235.731075	1.015959	0.015422	2.757483
174.403584	2246.723373	1.020964	0.015317	2.763434
174.773233	2257.753418	1.025969	0.015245	2.769363
175.172837	2268.783480	1.030973	0.015168	2.775284
175.566401	2279.780485	1.035978	0.015091	2.781174
176.178413	2290.808198	1.040983	0.014974	2.787104
176.748997	2301.831011	1.045988	0.014864	2.793011
177.203432	2312.839835	1.050992	0.014776	2.798879
177.248175	2323.912992	1.055997	0.014765	2.804702
177.948311	2334.856656	1.061002	0.014631	2.810552
178.584365	2345.902456	1.066006	0.014508	2.816432
179.132282	2356.934219	1.071011	0.014403	2.822279
179.573168	2367.940520	1.076016	0.014317	2.828082
180.063050	2378.963805	1.081021	0.014223	2.833890
180.408598	2389.990520	1.086025	0.014155	2.839665
180.915886	2401.008186	1.091030	0.014057	2.845449
181.341408	2412.048745	1.096035	0.013975	2.851220
181.951088	2423.015925	1.101039	0.013858	2.856971
182.288836	2434.077064	1.106044	0.013792	2.862715
182.680477	2445.074222	1.111049	0.013715	2.868423
183.133562	2456.110211	1.116054	0.013628	2.874150
183.554527	2467.122412	1.121058	0.013546	2.879847
184.023278	2478.142238	1.126063	0.013455	2.885545
184.334667	2489.192230	1.131068	0.013394	2.891222
184.454445	2500.230269	1.136073	0.013369	2.896852
184.844216	2511.191160	1.141077	0.013293	2.902474
185.220172	2522.208849	1.146082	0.013220	2.908111
185.910282	2533.215323	1.151087	0.013087	2.913780
186.174046	2544.272750	1.156091	0.013035	2.919398
186.674942	2555.253926	1.161096	0.012939	2.925004
187.021558	2566.327453	1.166101	0.012871	2.930621
187.441259	2577.297538	1.171106	0.012789	2.936186
188.203306	2588.307047	1.176110	0.012644	2.941813
188.621254	2599.334361	1.181115	0.012562	2.947386
189.014074	2610.368732	1.186120	0.012486	2.952947
189.494303	2621.397818	1.191125	0.012393	2.958509
189.734240	2632.417312	1.196129	0.012345	2.964019
190.051823	2643.432164	1.201134	0.012283	2.969528
190.487225	2654.442893	1.206139	0.012199	2.975042
191.181719	2665.436022	1.211143	0.012066	2.980576
191.486068	2676.496674	1.216148	0.012006	2.986075
191.832788	2687.506218	1.221153	0.011938	2.991545
191.989059	2698.525695	1.226158	0.011906	2.996981
192.512501	2709.515875	1.231162	0.011805	3.002447
192.785688	2720.574577	1.236167	0.011751	3.007900
193.170435	2731.559973	1.241172	0.011676	3.013324
193.600971	2742.579384	1.246177	0.011593	3.018761
194.125706	2753.590219	1.251181	0.011491	3.024197
194.662494	2764.628130	1.256186	0.011388	3.029639
194.940456	2775.653245	1.261191	0.011333	3.035027
195.091397	2786.697571	1.266195	0.011302	3.040396
195.400723	2797.695465	1.271200	0.011241	3.045756
195.978960	2808.696185	1.276205	0.011130	3.051147
196.170735	2819.707161	1.281210	0.011091	3.056478
196.604274	2830.725904	1.286214	0.011007	3.061837
197.237249	2841.731046	1.291219	0.010886	3.067209
197.600152	2852.785706	1.296224	0.010815	3.072557
197.807747	2863.790569	1.301228	0.010773	3.077849
198.183681	2874.815633	1.306233	0.010700	3.083166
198.575049	2885.822119	1.311238	0.010624	3.088467
199.038187	2896.815491	1.316243	0.010534	3.093763
199.659466	2907.853058	1.321247	0.010415	3.099092
200.223347	2918.863364	1.326252	0.010306	3.104391
200.902441	2929.864306	1.331257	0.010176	3.109693
201.533508	2940.906883	1.336262	0.010055	3.114999
202.020828	2951.921303	1.341266	0.009961	3.120262
202.551176	2962.929550	1.346271	0.009859	3.125519
203.036544	2973.974804	1.351276	0.009765	3.130778
203.277327	2984.987956	1.356280	0.009717	3.135980
203.764873	2995.974444	1.361285	0.009623	3.141194
204.229526	3007.030522	1.366290	0.009533	3.146429
204.705689	3017.999081	1.371295	0.009441	3.151616
205.046158	3029.072245	1.376299	0.009374	3.156825
205.491772	3040.071496	1.381304	0.009288	3.162004
205.973963	3051.089313	1.386309	0.009195	3.167189
206.586623	3062.063979	1.391314	0.009077	3.172363
207.197313	3073.129977	1.396318	0.008960	3.177570
207.547743	3084.130533	1.401323	0.008891	3.182703
208.017253	3095.163924	1.406328	0.008800	3.187859
208.404511	3106.165039	1.411332	0.008725	3.192981
208.950534	3117.185577	1.416337	0.008620	3.198124
209.584984	3128.181724	1.421342	0.008498	3.203260
209.940290	3139.237707	1.426347	0.008428	3.208378
210.302339	3150.240152	1.431351	0.008358	3.213463
210.432328	3161.277751	1.436356	0.008331	3.218526
210.753252	3172.268011	1.441361	0.008268	3.223585
211.206965	3183.291629	1.446366	0.008180	3.228668
211.597488	3194.295721	1.451370	0.008104	3.233726
212.192975	3205.318124	1.456375	0.007989	3.238811
212.823706	3216.310413	1.461380	0.007868	3.243879
213.389917	3227.362586	1.466384	0.007759	3.248958
213.901428	3238.364064	1.471389	0.007661	3.253998
214.197116	3249.412639	1.476394	0.007602	3.259024
214.910263	3260.366995	1.481399	0.007466	3.264053
215.385293	3271.447563	1.486403	0.007374	3.269101
215.741260	3282.446357	1.491408	0.007304	3.274089
216.135882	3293.476983	1.496413	0.007228	3.279088
216.470221	3304.468850	1.501417	0.007162	3.284055
216.867163	3315.509402	1.506422	0.007085	3.289043
217.204230	3326.505153	1.511427	0.007019	3.293997
217.757638	3337.520554	1.516432	0.006913	3.298979
218.255800	3348.538730	1.521436	0.006816	3.303947
218.536694	3359.581018	1.526441	0.006761	3.308892
219.335967	3370.530001	1.531446	0.006608	3.313853
219.906838	3381.604784	1.536451	0.006498	3.318833
220.444554	3392.591810	1.541455	0.006395	3.323762
220.860678	3403.652074	1.546460	0.006314	3.328702
221.029535	3414.649094	1.551465	0.006279	3.333575
221.358818	3425.658113	1.556469	0.006215	3.338466
221.714349	3436.671923	1.561474	0.006146	3.343355
222.228032	3447.712316	1.566479	0.006046	3.348269
222.759552	3458.681064	1.571484	0.005944	3.353146
223.308517	3469.760545	1.576488	0.005838	3.358066
223.481032	3480.736335	1.581493	0.005803	3.362887
223.777602	3491.803331	1.586498	0.005745	3.367757
224.223456	3502.746539	1.591503	0.005658	3.372583
224.719369	3513.809479	1.596507	0.005563	3.377461
225.200529	3524.781661	1.601512	0.005470	3.382291
225.516593	3535.846461	1.606517	0.005408	3.387133
225.712498	3546.865189	1.611521	0.005368	3.391934
225.996305	3557.864323	1.616526	0.005312	3.396730
226.354396	3568.852031	1.621531	0.005242	3.401524
226.918574	3579.908091	1.626536	0.005134	3.406365
227.328250	3590.900285	1.631540	0.005054	3.411153
227.667679	3601.945293	1.636545	0.004988	3.415948
227.967837	3612.931316	1.641550	0.004928	3.420707
228.644131	3623.946319	1.646555	0.004799	3.425516
229.198113	3634.961843	1.651559	0.004692	3.430304
229.434447	3646.009113	1.656564	0.004645	3.435061
229.831957	3656.993661	1.661569	0.004568	3.439804
230.184976	3668.047045	1.666573	0.004499	3.444564
230.586039	3679.050009	1.671578	0.004421	3.449301
230.886359	3690.075754	1.676583	0.004362	3.454030
231.303076	3701.061269	1.681588	0.004281	3.458749
231.641951	3712.102769	1.686592	0.004215	3.463476
232.116799	3723.075081	1.691597	0.004123	3.468183
232.545883	3734.111493	1.696602	0.004039	3.472905
232.923496	3745.144223	1.701606	0.003966	3.477614
233.412005	3756.156648	1.706611	0.003871	3.482320
234.143370	3767.147491	1.711616	0.003732	3.487038
234.632593	3778.182389	1.716621	0.003637	3.491741
235.036662	3789.192767	1.721625	0.003558	3.496417
235.427289	3800.218964	1.726630	0.003482	3.501092
235.831074	3811.235068	1.731635	0.003404	3.505758
236.315692	3822.250896	1.736640	0.003310	3.510427
236.500002	3833.277012	1.741644	0.003273	3.515059
237.127261	3844.269843	1.746649	0.003153	3.519722
237.596574	3855.294566	1.751654	0.003062	3.524374
237.982302	3866.339746	1.756658	0.002987	3.529018
238.363583	3877.323694	1.761663	0.002912	3.533631
238.935095	3888.363280	1.766668	0.002802	3.538281
239.348080	3899.337359	1.771673	0.002722	3.542881
239.841376	3910.384279	1.776677	0.002627	3.547514
239.948277	3921.411587	1.781682	0.002604	3.552089
240.604951	3932.390247	1.786687	0.002478	3.556700
241.075466	3943.418055	1.791692	0.002387	3.561304
241.651843	3954.437363	1.796696	0.002276	3.565910
242.036455	3965.453987	1.801701	0.002201	3.570488
242.641581	3976.456232	1.806706	0.002085	3.575078
243.283414	3987.477015	1.811710	0.001962	3.579674
243.702112	3998.522875	1.816715	0.001881	3.584250
244.001415	4009.523684	1.821720	0.001822	3.588788
244.564557	4020.549807	1.826725	0.001713	3.593359
244.834494	4031.561804	1.831729	0.001660	3.597887
245.355989	4042.557496	1.836734	0.001559	3.602430
245.754935	4053.584133	1.841739	0.001482	3.606966
246.039517	4064.607128	1.846744	0.001426	3.611483
246.379757	4075.614761	1.851748	0.001359	3.615993
246.626445	4086.642084	1.856753	0.001310	3.620496
246.989899	4097.687789	1.861758	0.001239	3.625014
247.385170	4108.706754	1.866762	0.001162	3.629518
247.591653	4119.734186	1.871767	0.001121	3.633999
248.078834	4130.745954	1.876772	0.001027	3.638499
248.448779	4141.760208	1.881777	0.000955	3.642982
249.027562	4152.781257	1.886781	0.000843	3.647484
249.583268	4163.756544	1.891786	0.000736	3.651959
249.869608	4174.816034	1.896791	0.000680	3.656434
250.157273	4185.822830	1.901795	0.000623	3.660883
250.398713	4196.852315	1.906800	0.000575	3.665330
250.818985	4207.855437	1.911805	0.000493	3.669780
251.143589	4218.864598	1.916810	0.000430	3.674217
251.507313	4229.882571	1.921814	0.000359	3.678656
251.969801	4240.925108	1.926819	0.000269	3.683110
252.261920	4251.942120	1.931824	0.000212	3.687530
252.700584	4262.898984	1.936829	0.000127	3.691937
252.996059	4273.936577	1.941833	0.000069	3.696355
253.375115	4284.965051	1.946838	-0.000005	3.700773
253.784383	4295.977900	1.951843	-0.000085	3.705182
254.250338	4307.001307	1.956847	-0.000175	3.709597
254.374360	4318.010282	1.961852	-0.000201	3.713965
254.783941	4329.027741	1.966857	-0.000281	3.718360
255.040642	4340.032560	1.971862	-0.000331	3.722730
255.635794	4351.067438	1.976866	-0.000446	3.727140
255.949312	4362.042824	1.981871	-0.000507	3.731494
256.495978	4373.096526	1.986876	-0.000613	3.735896
256.903420	4384.089956	1.991881	-0.000692	3.740256
257.186537	4395.151732	1.996885	-0.000748	3.744625
257.530080	4406.111460	2.001890	-0.000815	3.748954
