Wed Nov 23 17:12:02 2022

Number of Points = 2200
Depth (nm)	Load (µN)	Time (s)	Depth (V)	Load (V)
-1.506280	1.213038	0.000000	0.071863	0.836347
0.000000	6.751648	0.005005	0.071579	0.847095
1.274506	15.469281	0.010009	0.071338	0.863037
2.001158	25.990624	0.015014	0.071199	0.881384
2.895378	36.972739	0.020019	0.071028	0.900219
3.615692	48.159774	0.025024	0.070891	0.918893
4.102150	59.432950	0.030028	0.070796	0.937193
4.783431	70.608628	0.035033	0.070666	0.955103
5.138928	81.892165	0.040038	0.070596	0.972663
5.382944	93.139772	0.045043	0.070548	0.989796
5.764933	104.264966	0.050047	0.070473	1.006532
6.103991	115.456595	0.055052	0.070407	1.023067
6.502643	126.602201	0.060057	0.070329	1.039304
6.994057	137.745300	0.065061	0.070234	1.055336
7.190374	148.948928	0.070066	0.070195	1.071060
8.565806	159.791236	0.075071	0.069934	1.086658
9.774556	170.998473	0.080076	0.069704	1.102442
10.583088	182.217817	0.085080	0.069550	1.117822
12.866223	192.876812	0.090085	0.069119	1.132970
16.600799	203.881069	0.095090	0.068415	1.149051
18.057160	215.334593	0.100094	0.068139	1.164414
19.560774	226.539760	0.105099	0.067854	1.179285
21.139133	237.624784	0.110104	0.067556	1.193854
22.802130	248.736152	0.115109	0.067241	1.208318
24.830946	259.759666	0.120113	0.066857	1.222664
26.814294	270.901428	0.125118	0.066482	1.236965
27.935222	282.150221	0.130123	0.066269	1.250854
29.259654	293.263804	0.135128	0.066018	1.264518
30.301740	304.388737	0.140132	0.065820	1.277929
31.559319	315.453873	0.145137	0.065581	1.291222
32.754098	326.609877	0.150142	0.065354	1.304456
33.734710	337.707856	0.155146	0.065167	1.317402
34.880379	348.726681	0.160151	0.064950	1.330201
36.010030	359.827480	0.165156	0.064735	1.342962
37.102403	370.906983	0.170161	0.064527	1.355563
38.172115	381.999471	0.175165	0.064324	1.368053
38.956334	393.124716	0.180170	0.064174	1.380353
39.970144	404.183632	0.185175	0.063981	1.392562
40.643126	415.284845	0.190180	0.063852	1.404578
41.578118	426.339999	0.195184	0.063674	1.416543
42.609224	437.353275	0.200189	0.063477	1.428401
43.724441	448.438812	0.205194	0.063265	1.440265
44.475711	459.551733	0.210198	0.063122	1.451926
45.273791	470.633890	0.215203	0.062969	1.463479
46.090581	481.663404	0.220208	0.062813	1.474895
47.423954	492.660346	0.225213	0.062560	1.486376
48.093867	503.821339	0.230217	0.062432	1.497694
49.241022	514.797734	0.235222	0.062214	1.508915
50.094570	525.908099	0.240227	0.062051	1.520079
51.039467	536.962201	0.245232	0.061871	1.531139
51.937013	548.024436	0.250236	0.061700	1.542111
52.742899	559.101968	0.255241	0.061546	1.552988
53.421206	570.166921	0.260246	0.061416	1.563734
53.998179	581.269334	0.265250	0.061305	1.574407
54.491357	592.296854	0.270255	0.061210	1.584910
55.140853	603.366682	0.275260	0.061085	1.595434
55.724637	614.389901	0.280265	0.060973	1.605825
56.719624	625.390634	0.285269	0.060783	1.616262
57.267404	636.511222	0.290274	0.060678	1.626596
57.973500	647.558133	0.295279	0.060542	1.636849
58.394939	658.615048	0.300283	0.060461	1.646955
59.262210	669.608869	0.305288	0.060295	1.657085
60.085884	680.642111	0.310293	0.060138	1.667174
60.915084	691.723701	0.315298	0.059980	1.677246
61.453122	702.799332	0.320302	0.059876	1.687162
62.015127	713.857150	0.325307	0.059768	1.697012
62.633899	724.864440	0.330312	0.059649	1.706778
63.451923	735.903833	0.335317	0.059493	1.716577
63.992046	746.975941	0.340321	0.059389	1.726263
64.708607	758.012069	0.345326	0.059251	1.735918
65.432117	769.003476	0.350331	0.059113	1.745483
66.117133	780.106587	0.355335	0.058982	1.755078
66.742745	791.131158	0.360340	0.058861	1.764537
67.250526	802.203971	0.365345	0.058763	1.773952
67.681854	813.253091	0.370350	0.058680	1.783274
68.375516	824.246444	0.375354	0.058547	1.792578
68.936705	835.292579	0.380359	0.058439	1.801838
69.579675	846.343059	0.385364	0.058315	1.811078
70.399694	857.348798	0.390369	0.058159	1.820285
70.925434	868.425502	0.395373	0.058057	1.829419
71.497767	879.458221	0.400378	0.057947	1.838485
72.212414	890.486880	0.405383	0.057811	1.847543
72.742658	901.558708	0.410387	0.057708	1.856540
73.104726	912.610685	0.415392	0.057638	1.865430
73.840723	923.575289	0.420397	0.057497	1.874312
74.405059	934.659848	0.425402	0.057388	1.883200
74.787584	945.713186	0.430406	0.057314	1.891971
75.195456	956.747558	0.435411	0.057234	1.900694
75.812330	967.735293	0.440416	0.057116	1.909396
76.413255	978.811668	0.445421	0.057000	1.918124
76.806549	989.840852	0.450425	0.056924	1.926720
77.451812	1000.867453	0.455430	0.056800	1.935342
77.967560	1011.891973	0.460435	0.056701	1.943890
78.754132	1022.888607	0.465439	0.056550	1.952450
79.221278	1034.001531	0.470444	0.056460	1.960977
79.562836	1045.032380	0.475449	0.056393	1.969373
80.219660	1056.025883	0.480454	0.056267	1.977786
80.870587	1067.075295	0.485458	0.056142	1.986204
81.414731	1078.094510	0.490463	0.056037	1.994536
82.154788	1089.114965	0.495468	0.055896	2.002884
82.758934	1100.173327	0.500472	0.055780	2.011190
83.410374	1111.208279	0.505477	0.055655	2.019457
83.792903	1122.259062	0.510482	0.055580	2.027634
84.263765	1133.274645	0.515487	0.055489	2.035774
84.828354	1144.285210	0.520491	0.055380	2.043901
85.453130	1155.332872	0.525496	0.055260	2.052038
85.981666	1166.358867	0.530501	0.055159	2.060103
86.513573	1177.391974	0.535506	0.055056	2.068142
87.054722	1188.435024	0.540510	0.054952	2.076159
87.699480	1199.450563	0.545515	0.054828	2.084151
88.146609	1210.484232	0.550520	0.054741	2.092077
88.649077	1221.524895	0.555524	0.054644	2.099991
89.117225	1232.528038	0.560529	0.054554	2.107840
89.812076	1243.566388	0.565534	0.054421	2.115739
90.292923	1254.600308	0.570539	0.054328	2.123555
90.598154	1265.677298	0.575543	0.054268	2.131330
90.972564	1276.655349	0.580548	0.054195	2.139024
91.608264	1287.678897	0.585553	0.054073	2.146784
92.157672	1298.708460	0.590558	0.053967	2.154499
92.530850	1309.772626	0.595562	0.053894	2.162169
93.082385	1320.766210	0.600567	0.053788	2.169805
93.644073	1331.808271	0.605572	0.053680	2.177449
94.100371	1342.827582	0.610576	0.053591	2.185027
94.644076	1353.864767	0.615581	0.053487	2.192610
95.049466	1364.908213	0.620586	0.053408	2.200140
95.491639	1375.914913	0.625591	0.053322	2.207628
95.805334	1386.960774	0.630595	0.053261	2.215087
96.478585	1397.956637	0.635600	0.053132	2.222569
96.905990	1408.983803	0.640605	0.053049	2.229991
97.291718	1420.053031	0.645610	0.052974	2.237407
97.609024	1431.081496	0.650614	0.052911	2.244756
98.166141	1442.060456	0.655619	0.052804	2.252101
98.472867	1453.127057	0.660624	0.052744	2.259425
99.243539	1464.096872	0.665628	0.052596	2.266763
99.743483	1475.158672	0.670633	0.052500	2.274078
100.128348	1486.192149	0.675638	0.052425	2.281327
100.357865	1497.217893	0.680643	0.052379	2.288513
100.978998	1508.228341	0.685647	0.052260	2.295751
101.456043	1519.247064	0.690652	0.052168	2.302941
102.074401	1530.272920	0.695657	0.052049	2.310143
102.396517	1541.319652	0.700661	0.051986	2.317273
102.850409	1552.330585	0.705666	0.051898	2.324386
103.121805	1563.397067	0.710671	0.051844	2.331474
103.589597	1574.395144	0.715676	0.051754	2.338538
104.128780	1585.371348	0.720680	0.051650	2.345582
104.518174	1596.460408	0.725685	0.051574	2.352644
104.846862	1607.472530	0.730690	0.051510	2.359624
105.362712	1618.478543	0.735695	0.051410	2.366618
105.859836	1629.509853	0.740699	0.051314	2.373604
106.306841	1640.519402	0.745704	0.051227	2.380545
106.863190	1651.528949	0.750709	0.051120	2.387488
107.282930	1662.612713	0.755713	0.051039	2.394429
107.413923	1673.613355	0.760718	0.051011	2.401239
108.120812	1684.611794	0.765723	0.050876	2.408146
108.487942	1695.669081	0.770728	0.050804	2.415000
109.026892	1706.663748	0.775732	0.050701	2.421831
109.547875	1717.680805	0.780737	0.050600	2.428652
110.037985	1728.728458	0.785742	0.050505	2.435467
110.207560	1739.767280	0.790747	0.050471	2.442193
110.625781	1750.780901	0.795751	0.050390	2.448935
110.888721	1761.793657	0.800756	0.050338	2.455627
111.447588	1772.805799	0.805761	0.050230	2.462358
111.951342	1783.836952	0.810765	0.050133	2.469072
112.409377	1794.861017	0.815770	0.050044	2.475754
112.741815	1805.887344	0.820775	0.049979	2.482395
113.147305	1816.914882	0.825780	0.049900	2.489032
113.594480	1827.933055	0.830784	0.049814	2.495655
114.047430	1838.948892	0.835789	0.049726	2.502260
114.415303	1849.974485	0.840794	0.049654	2.508836
115.084462	1860.978924	0.845799	0.049526	2.515440
115.468567	1872.036828	0.850803	0.049451	2.522004
116.052525	1883.026968	0.855808	0.049339	2.528549
116.368022	1894.066777	0.860813	0.049277	2.535055
116.768127	1905.096199	0.865817	0.049199	2.541555
117.083117	1916.125464	0.870822	0.049137	2.548021
117.597170	1927.134229	0.875827	0.049038	2.554496
117.968979	1938.133225	0.880832	0.048965	2.560923
118.699607	1949.147614	0.885836	0.048826	2.567409
119.036935	1960.251636	0.890841	0.048760	2.573857
119.466309	1971.244801	0.895846	0.048676	2.580242
119.738553	1982.239612	0.900850	0.048622	2.586584
120.176714	1993.272511	0.905855	0.048538	2.592962
120.568175	2004.272428	0.910860	0.048461	2.599296
121.168193	2015.287537	0.915865	0.048346	2.605662
121.488775	2026.334515	0.920869	0.048283	2.611980
121.766099	2037.380790	0.925874	0.048228	2.618274
121.983945	2048.345575	0.930879	0.048185	2.624496
122.610981	2059.335545	0.935884	0.048064	2.630791
123.135007	2070.371126	0.940888	0.047963	2.637078
123.790794	2081.402013	0.945893	0.047838	2.643371
124.165928	2092.421717	0.950898	0.047764	2.649592
124.730529	2103.443626	0.955902	0.047656	2.655834
125.051401	2114.468054	0.960907	0.047593	2.662019
125.571485	2125.476591	0.965912	0.047493	2.668215
125.858530	2136.524477	0.970917	0.047436	2.674379
126.575187	2147.507660	0.975921	0.047299	2.680567
126.911362	2158.539712	0.980926	0.047233	2.686701
127.472424	2169.583014	0.985931	0.047125	2.692867
127.940884	2180.567096	0.990936	0.047034	2.698970
128.649356	2191.586990	0.995940	0.046899	2.705120
129.169511	2202.620832	1.000945	0.046798	2.711231
129.566363	2213.672699	1.005950	0.046721	2.717317
129.720711	2224.686013	1.010954	0.046689	2.723326
130.195692	2235.693102	1.015959	0.046598	2.729374
130.506007	2246.719305	1.020964	0.046537	2.735390
131.388506	2257.679280	1.025969	0.046368	2.741455
131.632879	2268.793926	1.030973	0.046320	2.747481
132.074326	2279.759685	1.035978	0.046234	2.753447
132.422774	2290.790057	1.040983	0.046166	2.759419
132.949565	2301.798770	1.045988	0.046064	2.765397
133.370161	2312.864072	1.050992	0.045983	2.771373
134.032807	2323.819342	1.055997	0.045856	2.777319
134.253734	2334.871800	1.061002	0.045812	2.783230
134.865390	2345.873671	1.066006	0.045694	2.789166
135.202751	2356.932821	1.071011	0.045628	2.795074
135.705325	2367.912774	1.076016	0.045531	2.800956
136.178439	2378.955263	1.081021	0.045439	2.806852
136.607004	2389.990263	1.086025	0.045356	2.812726
136.854887	2400.966897	1.091030	0.045307	2.818526
137.493561	2412.003145	1.096035	0.045185	2.824410
137.675475	2423.048929	1.101039	0.045148	2.830212
138.206326	2434.035128	1.106044	0.045045	2.836027
138.631918	2445.077147	1.111049	0.044963	2.841842
139.042015	2456.080311	1.116054	0.044883	2.847623
139.381695	2467.115456	1.121058	0.044817	2.853397
139.724268	2478.125347	1.126063	0.044750	2.859147
140.145127	2489.148775	1.131068	0.044668	2.864904
140.567118	2500.161781	1.136073	0.044586	2.870645
141.060303	2511.164454	1.141077	0.044491	2.876380
141.696722	2522.215001	1.146082	0.044369	2.882151
141.832661	2533.230677	1.151087	0.044340	2.887813
142.346063	2544.240162	1.156091	0.044241	2.893521
142.838206	2555.244214	1.161096	0.044146	2.899211
143.556828	2566.255614	1.166101	0.044009	2.904928
143.820917	2577.323094	1.171106	0.043956	2.910592
144.293937	2588.299771	1.176110	0.043865	2.916231
144.562241	2599.344834	1.181115	0.043812	2.921863
144.979020	2610.347573	1.186120	0.043731	2.927484
145.491347	2621.363845	1.191125	0.043632	2.933117
145.977653	2632.358901	1.196129	0.043538	2.938724
146.505745	2643.406343	1.201134	0.043436	2.944352
146.969944	2654.447616	1.206139	0.043346	2.949957
147.519317	2665.424543	1.211143	0.043241	2.955532
147.956783	2676.451842	1.216148	0.043156	2.961105
148.529255	2687.478227	1.221153	0.043046	2.966686
149.027828	2698.495692	1.226158	0.042949	2.972242
149.507566	2709.502917	1.231162	0.042857	2.977779
149.906998	2720.549826	1.236167	0.042779	2.983314
150.312566	2731.557097	1.241172	0.042700	2.988819
150.800893	2742.556943	1.246177	0.042606	2.994323
151.072401	2753.617701	1.251181	0.042552	2.999814
151.644525	2764.591814	1.256186	0.042442	3.005297
152.043851	2775.640614	1.261191	0.042364	3.010781
152.333146	2786.638586	1.266195	0.042307	3.016214
152.725615	2797.662716	1.271200	0.042231	3.021665
153.358553	2808.652188	1.276205	0.042109	3.027125
153.954188	2819.697771	1.281210	0.041995	3.032596
154.400610	2830.735526	1.286214	0.041908	3.038032
154.634082	2841.738354	1.291219	0.041862	3.043410
154.995938	2852.772731	1.296224	0.041791	3.048812
155.548925	2863.749885	1.301228	0.041685	3.054205
155.904309	2874.803526	1.306233	0.041615	3.059596
156.329336	2885.800539	1.311238	0.041533	3.064961
156.804747	2896.836658	1.316243	0.041441	3.070342
157.236989	2907.823599	1.321247	0.041357	3.075683
157.498032	2918.875230	1.326252	0.041305	3.081022
157.916747	2929.868093	1.331257	0.041224	3.086346
158.394581	2940.900081	1.336262	0.041132	3.091688
158.549964	2951.917770	1.341266	0.041100	3.096968
158.836433	2962.948997	1.346271	0.041043	3.102264
159.030005	2973.967130	1.351276	0.041004	3.107531
159.520245	2984.955162	1.356280	0.040910	3.112817
159.853788	2996.011387	1.361285	0.040844	3.118104
160.203602	3007.011272	1.366290	0.040776	3.123358
160.462230	3018.040438	1.371295	0.040725	3.128604
160.800429	3029.035771	1.376299	0.040658	3.133836
161.041336	3040.077847	1.381304	0.040611	3.139068
161.441601	3051.065099	1.386309	0.040533	3.144287
161.742904	3062.104801	1.391314	0.040473	3.149509
162.168363	3073.109324	1.396318	0.040391	3.154722
162.296329	3084.158359	1.401323	0.040364	3.159907
162.680352	3095.141220	1.406328	0.040289	3.165087
163.065784	3106.178266	1.411332	0.040214	3.170284
163.504646	3117.153064	1.416337	0.040129	3.175451
163.755859	3128.225953	1.421342	0.040079	3.180630
163.983329	3139.206877	1.426347	0.040034	3.185754
164.102565	3150.252153	1.431351	0.040009	3.190885
164.384265	3161.242284	1.436356	0.039953	3.196004
164.889533	3172.269146	1.441361	0.039856	3.201162
165.369287	3183.264793	1.446366	0.039763	3.206294
165.662751	3194.323885	1.451370	0.039705	3.211421
166.081436	3205.300654	1.456375	0.039624	3.216519
166.435191	3216.318199	1.461380	0.039555	3.221620
166.923225	3227.343306	1.466384	0.039460	3.226733
167.192787	3238.400466	1.471389	0.039407	3.231823
167.397023	3249.394986	1.476394	0.039366	3.236869
167.808931	3260.385241	1.481399	0.039286	3.241932
168.280698	3271.424569	1.486403	0.039195	3.247017
168.454762	3282.449960	1.491408	0.039159	3.252049
168.825294	3293.460786	1.496413	0.039087	3.257092
169.168845	3304.458880	1.501417	0.039020	3.262118
169.421923	3315.507908	1.506422	0.038970	3.267147
169.496595	3326.526524	1.511427	0.038953	3.272131
170.055218	3337.507656	1.516432	0.038846	3.277154
170.456287	3348.535417	1.521436	0.038768	3.282170
170.864566	3359.567265	1.526441	0.038688	3.287180
171.208117	3370.575005	1.531446	0.038621	3.292164
171.605201	3381.569124	1.536451	0.038544	3.297140
171.904755	3392.613699	1.541455	0.038485	3.302120
172.412815	3403.603159	1.546460	0.038387	3.307093
172.882406	3414.645858	1.551465	0.038296	3.312078
173.181401	3425.660940	1.556469	0.038237	3.317022
173.505260	3436.687789	1.561474	0.038174	3.321966
173.885850	3447.670934	1.566479	0.038099	3.326891
174.321081	3458.698204	1.571484	0.038015	3.331834
174.577068	3469.729612	1.576488	0.037964	3.336750
174.901126	3480.743410	1.581493	0.037901	3.341659
175.256523	3491.757067	1.586498	0.037831	3.346565
175.507104	3502.787815	1.591503	0.037782	3.351457
175.869204	3513.785675	1.596507	0.037711	3.356342
176.153392	3524.811241	1.601512	0.037655	3.361223
176.513542	3535.838814	1.606517	0.037585	3.366106
176.671011	3546.841448	1.611521	0.037552	3.370946
177.011649	3557.840640	1.616526	0.037486	3.375801
177.413914	3568.878720	1.621531	0.037407	3.380673
177.821400	3579.870779	1.626536	0.037328	3.385518
178.093811	3590.945565	1.631540	0.037274	3.390376
178.371443	3601.896427	1.636545	0.037220	3.395174
178.527305	3612.964750	1.641550	0.037188	3.400000
178.929215	3623.936917	1.646555	0.037110	3.404809
179.189940	3634.992565	1.651559	0.037058	3.409629
179.669572	3645.961833	1.656564	0.036965	3.414432
180.006678	3657.017133	1.661569	0.036899	3.419247
180.477335	3668.011302	1.666573	0.036808	3.424046
180.753457	3679.061705	1.671578	0.036754	3.428838
181.129817	3690.039678	1.676583	0.036680	3.433605
181.664043	3701.058524	1.681588	0.036577	3.438401
181.948673	3712.075111	1.686592	0.036521	3.443160
182.288946	3723.114402	1.691597	0.036455	3.447929
182.562027	3734.114861	1.696602	0.036401	3.452666
182.951514	3745.143111	1.701606	0.036325	3.457423
183.448419	3756.114753	1.706611	0.036229	3.462161
183.875695	3767.161461	1.711616	0.036146	3.466916
184.146735	3778.191908	1.716621	0.036092	3.471640
184.348822	3789.209560	1.721625	0.036052	3.476343
184.776911	3800.201490	1.726630	0.035969	3.481056
185.310815	3811.237893	1.731635	0.035866	3.485793
185.634622	3822.235262	1.736640	0.035802	3.490483
186.050632	3833.269019	1.741644	0.035721	3.495193
186.434200	3844.270664	1.746649	0.035647	3.499879
186.796947	3855.290890	1.751654	0.035576	3.504564
187.362704	3866.302609	1.756658	0.035467	3.509262
187.642884	3877.331801	1.761663	0.035412	3.513928
188.123406	3888.346553	1.766668	0.035319	3.518605
188.513845	3899.371895	1.771673	0.035243	3.523270
188.768662	3910.384210	1.776677	0.035192	3.527908
189.007903	3921.417733	1.781682	0.035145	3.532547
189.417561	3932.399455	1.786687	0.035065	3.537177
189.810496	3943.415476	1.791692	0.034989	3.541813
190.153132	3954.436676	1.796696	0.034922	3.546440
190.286093	3965.453507	1.801701	0.034894	3.551035
190.828903	3976.458818	1.806706	0.034789	3.555666
191.083149	3987.498991	1.811710	0.034739	3.560273
191.509030	3998.489989	1.816715	0.034656	3.564872
191.890963	4009.529336	1.821720	0.034582	3.569480
192.064344	4020.530606	1.826725	0.034547	3.574044
192.309607	4031.562333	1.831729	0.034498	3.578622
192.652356	4042.567026	1.836734	0.034431	3.583194
193.127181	4053.603747	1.841739	0.034339	3.587787
193.495505	4064.573403	1.846744	0.034267	3.592336
193.794032	4075.627773	1.851748	0.034208	3.596906
194.274859	4086.598106	1.856753	0.034116	3.601455
194.395380	4097.733335	1.861758	0.034090	3.606026
194.624720	4108.695553	1.866762	0.034044	3.610533
195.035528	4119.721917	1.871767	0.033965	3.615081
195.438281	4130.704935	1.876772	0.033886	3.619603
195.957354	4141.770774	1.881777	0.033786	3.624167
196.304616	4152.773116	1.886781	0.033718	3.628680
196.495397	4163.818002	1.891786	0.033680	3.633188
196.921454	4174.803514	1.896791	0.033597	3.637691
197.248971	4185.816062	1.901795	0.033533	3.642190
197.707048	4196.827985	1.906800	0.033444	3.646696
198.012051	4207.840372	1.911805	0.033384	3.651180
198.385435	4218.867058	1.916810	0.033311	3.655672
198.675250	4229.894083	1.921814	0.033254	3.660150
198.994519	4240.882888	1.926819	0.033192	3.664610
199.387081	4251.914969	1.931824	0.033115	3.669089
199.751439	4262.925545	1.936829	0.033044	3.673551
200.066978	4273.962676	1.941833	0.032982	3.678014
200.345216	4284.976528	1.946838	0.032927	3.682457
200.596181	4296.001725	1.951843	0.032878	3.686897
200.833146	4306.967537	1.956847	0.032830	3.691306
201.213718	4318.013880	1.961852	0.032756	3.695757
201.493561	4329.013296	1.966857	0.032701	3.700174
201.804150	4340.038453	1.971862	0.032640	3.704598
202.021553	4351.043298	1.976866	0.032596	3.708999
202.209447	4362.079321	1.981871	0.032558	3.713405
202.569253	4373.081471	1.986876	0.032488	3.717809
203.029123	4384.123737	1.991881	0.032399	3.722235
203.364785	4395.120329	1.996885	0.032334	3.726624
203.621551	4406.123025	2.001890	0.032283	3.731002
203.851510	4417.147405	2.006895	0.032237	3.735381
204.301788	4428.149214	2.011899	0.032150	3.739769
