Wed Nov 23 19:06:18 2022

Number of Points = 2200
Depth (nm)	Load (µN)	Time (s)	Depth (V)	Load (V)
-1.272707	0.925660	0.000000	0.006378	1.039881
0.000000	7.726349	0.005005	0.006138	1.050108
1.282495	17.091033	0.010009	0.005895	1.063790
2.406025	27.806400	0.015014	0.005681	1.079059
3.521298	38.858547	0.020019	0.005469	1.094561
4.509562	50.006718	0.025024	0.005281	1.109912
5.380323	61.163727	0.030028	0.005115	1.125007
6.144525	72.322487	0.035033	0.004969	1.139854
8.092764	83.198034	0.040038	0.004601	1.154703
8.986666	94.492659	0.045043	0.004430	1.169401
9.554149	105.706378	0.050047	0.004321	1.183668
14.506807	115.717878	0.055052	0.003389	1.198261
18.553389	127.212367	0.060057	0.002627	1.214069
20.074267	138.751219	0.065061	0.002339	1.228619
21.484175	149.957737	0.070066	0.002071	1.242556
23.154775	161.004234	0.075071	0.001755	1.256262
24.217144	172.208698	0.080076	0.001553	1.269745
25.565991	183.287557	0.085080	0.001297	1.283062
27.196203	194.321739	0.090085	0.000989	1.296306
28.118411	205.573849	0.095090	0.000813	1.309371
29.694910	216.511312	0.100094	0.000514	1.322220
31.051410	227.614807	0.105099	0.000257	1.335040
32.186203	238.749113	0.110104	0.000041	1.347683
33.391291	249.805479	0.115109	-0.000188	1.360151
34.653845	260.893289	0.120113	-0.000427	1.372560
35.730789	271.974246	0.125118	-0.000632	1.384780
37.255608	283.006161	0.130123	-0.000921	1.397010
38.285313	294.138452	0.135128	-0.001117	1.409052
39.605235	305.158212	0.140132	-0.001367	1.420983
40.488096	316.326198	0.145137	-0.001536	1.432803
41.700644	327.315141	0.150142	-0.001766	1.444466
43.277266	338.324328	0.155146	-0.002065	1.456187
44.167873	349.512956	0.160151	-0.002234	1.467746
45.049114	360.576935	0.165156	-0.002403	1.479087
46.028100	371.613843	0.170161	-0.002589	1.490349
47.008309	382.705030	0.175165	-0.002776	1.501580
48.468793	393.656776	0.180170	-0.003052	1.512759
49.654987	404.762660	0.185175	-0.003278	1.523908
50.772510	415.836877	0.190180	-0.003490	1.534922
51.727926	426.943166	0.195184	-0.003672	1.545833
52.823845	437.948369	0.200189	-0.003881	1.556618
53.647148	449.062991	0.205194	-0.004038	1.567340
54.689367	460.082499	0.210198	-0.004236	1.577973
55.407646	471.184019	0.215203	-0.004374	1.588502
56.399432	482.197055	0.220208	-0.004562	1.598971
57.115289	493.291651	0.225213	-0.004699	1.609356
58.234855	504.292690	0.230217	-0.004912	1.619719
58.852996	515.388668	0.235222	-0.005031	1.629940
60.077217	526.379838	0.240227	-0.005263	1.640197
61.140695	537.399078	0.245232	-0.005466	1.650363
62.169484	548.477317	0.250236	-0.005662	1.660508
63.049912	559.553306	0.255241	-0.005829	1.670542
64.092671	570.584018	0.260246	-0.006028	1.680527
64.810001	581.663172	0.265250	-0.006165	1.690394
65.741928	592.689177	0.270255	-0.006343	1.700224
66.720053	603.726118	0.275260	-0.006529	1.710019
67.390019	614.808044	0.280265	-0.006658	1.719704
68.288071	625.824066	0.285269	-0.006829	1.729347
68.895213	636.915058	0.290274	-0.006945	1.738913
69.851808	647.871898	0.295279	-0.007128	1.748416
70.902190	658.964614	0.300283	-0.007327	1.758009
71.316102	670.053973	0.305288	-0.007408	1.767361
72.135804	681.053846	0.310293	-0.007564	1.776707
72.830352	692.104697	0.315298	-0.007697	1.786009
73.946193	703.069304	0.320302	-0.007910	1.795313
74.567475	714.188744	0.325307	-0.008029	1.804554
75.390159	725.216059	0.330312	-0.008186	1.813730
76.141357	736.246181	0.335317	-0.008330	1.822841
77.280557	747.247447	0.340321	-0.008546	1.831993
77.720454	758.378017	0.345326	-0.008631	1.841006
78.588331	769.331615	0.350331	-0.008797	1.849954
79.407638	780.413834	0.355335	-0.008954	1.858946
80.091356	791.451462	0.360340	-0.009085	1.867823
80.769669	802.484775	0.365345	-0.009215	1.876652
81.536849	813.509985	0.370350	-0.009361	1.885458
82.269973	824.563666	0.375354	-0.009502	1.894235
82.943175	835.589260	0.380359	-0.009631	1.902933
83.933984	846.587225	0.385364	-0.009819	1.911655
84.761342	857.648385	0.390369	-0.009977	1.920342
85.495646	868.702394	0.395373	-0.010118	1.928960
86.048259	879.779689	0.400378	-0.010224	1.937509
86.729041	890.740141	0.405383	-0.010355	1.945965
87.515759	901.806093	0.410387	-0.010505	1.954491
88.153110	912.825150	0.415392	-0.010627	1.962906
89.145442	923.833217	0.420397	-0.010816	1.971368
89.851102	934.895630	0.425402	-0.010951	1.979761
90.545325	945.931702	0.430406	-0.011084	1.988095
91.065252	956.992715	0.435411	-0.011185	1.996369
91.947883	967.988449	0.440416	-0.011353	2.004651
92.380800	979.054377	0.445421	-0.011437	2.012838
93.107799	990.071011	0.450425	-0.011576	2.021029
93.853227	1001.070898	0.455430	-0.011719	2.029179
94.663185	1012.135592	0.460435	-0.011873	2.037358
95.057248	1023.207779	0.465439	-0.011950	2.045408
95.688327	1034.202110	0.470444	-0.012071	2.053429
96.218263	1045.240840	0.475449	-0.012173	2.061425
96.778447	1056.280095	0.480454	-0.012281	2.069397
97.282135	1067.317087	0.485458	-0.012379	2.077324
98.349694	1078.273119	0.490463	-0.012582	2.085298
98.919845	1089.373271	0.495468	-0.012691	2.093224
99.370742	1100.418097	0.500472	-0.012779	2.101053
99.505901	1111.468353	0.505477	-0.012807	2.108781
100.241577	1122.440081	0.510482	-0.012947	2.116569
100.905264	1133.458396	0.515487	-0.013075	2.124342
101.536427	1144.502806	0.520491	-0.013196	2.132098
102.339042	1155.511972	0.525496	-0.013349	2.139841
103.212365	1166.525036	0.530501	-0.013516	2.147574
103.730689	1177.616601	0.535506	-0.013616	2.155252
104.188224	1188.644882	0.540510	-0.013704	2.162844
104.748432	1199.650760	0.545515	-0.013812	2.170419
105.164552	1210.714183	0.550520	-0.013893	2.177973
105.547011	1221.724807	0.555524	-0.013968	2.185457
106.217121	1232.721899	0.560529	-0.014096	2.192972
106.864874	1243.743181	0.565534	-0.014220	2.200472
107.532404	1254.799613	0.570539	-0.014348	2.207974
107.922194	1265.834932	0.575543	-0.014424	2.215374
108.608309	1276.824072	0.580548	-0.014556	2.222785
109.113451	1287.867702	0.585553	-0.014653	2.230167
109.610141	1298.928289	0.590558	-0.014749	2.237533
110.071217	1309.927676	0.595562	-0.014838	2.244828
110.701760	1320.948827	0.600567	-0.014959	2.252149
111.108687	1332.009838	0.605572	-0.015038	2.259424
111.940950	1342.946567	0.610576	-0.015197	2.266688
112.332587	1354.059541	0.615581	-0.015274	2.273946
112.953106	1365.053293	0.620586	-0.015393	2.281153
113.336479	1376.094464	0.625591	-0.015467	2.288318
113.645889	1387.132217	0.630595	-0.015528	2.295442
114.418843	1398.100658	0.635600	-0.015676	2.302598
114.920176	1409.164382	0.640605	-0.015773	2.309734
115.626201	1420.157084	0.645610	-0.015908	2.316847
116.359246	1431.181930	0.650614	-0.016048	2.323963
117.097903	1442.220037	0.655619	-0.016190	2.331067
117.612586	1453.253224	0.660624	-0.016289	2.338100
118.305275	1464.264973	0.665628	-0.016422	2.345134
118.867663	1475.308434	0.670633	-0.016530	2.352141
119.421469	1486.324478	0.675638	-0.016636	2.359107
119.925896	1497.372389	0.680643	-0.016734	2.366062
120.475405	1508.354794	0.685647	-0.016840	2.372966
121.122751	1519.394051	0.690652	-0.016964	2.379904
121.484914	1530.447908	0.695657	-0.017035	2.386773
122.069736	1541.448346	0.700661	-0.017147	2.393635
122.489029	1552.486116	0.705666	-0.017228	2.400466
123.148277	1563.484777	0.710671	-0.017355	2.407301
123.787359	1574.536487	0.715676	-0.017478	2.414146
124.292358	1585.520368	0.720680	-0.017575	2.420903
124.782136	1596.578464	0.725685	-0.017670	2.427683
125.189689	1607.623316	0.730690	-0.017749	2.434419
125.554377	1618.620302	0.735695	-0.017820	2.441100
126.050757	1629.634624	0.740699	-0.017916	2.447799
126.635505	1640.665891	0.745704	-0.018028	2.454506
127.438041	1651.652114	0.750709	-0.018182	2.461211
128.097496	1662.690660	0.755713	-0.018308	2.467900
128.685285	1673.722849	0.760718	-0.018421	2.474554
129.111479	1684.786408	0.765723	-0.018504	2.481176
129.495322	1695.772525	0.770728	-0.018579	2.487728
129.967911	1706.814069	0.775732	-0.018670	2.494311
130.751636	1717.786549	0.780737	-0.018820	2.500896
131.133866	1728.867277	0.785742	-0.018894	2.507450
131.794766	1739.859874	0.790747	-0.019021	2.513989
132.234322	1750.889552	0.795751	-0.019106	2.520490
132.742468	1761.911867	0.800756	-0.019204	2.526983
133.284022	1772.957858	0.805761	-0.019309	2.533479
133.631016	1783.937486	0.810765	-0.019376	2.539883
134.191579	1794.974885	0.815770	-0.019484	2.546345
134.625269	1806.036875	0.820775	-0.019568	2.552780
135.299017	1816.990848	0.825780	-0.019698	2.559182
135.908885	1828.042432	0.830784	-0.019815	2.565611
136.150329	1839.091165	0.835789	-0.019863	2.571955
136.636351	1850.168606	0.840794	-0.019957	2.578344
136.997793	1861.093825	0.845799	-0.020027	2.584608
137.653764	1872.118073	0.850803	-0.020153	2.590967
138.095768	1883.148924	0.855808	-0.020239	2.597274
138.645733	1894.189831	0.860813	-0.020345	2.603592
139.132218	1905.177365	0.865817	-0.020439	2.609852
139.690486	1916.205249	0.870822	-0.020546	2.616133
140.089708	1927.239359	0.875827	-0.020624	2.622374
140.510391	1938.272715	0.880832	-0.020705	2.628603
141.091207	1949.255640	0.885836	-0.020817	2.634818
141.610180	1960.313411	0.890841	-0.020917	2.641048
141.911709	1971.333442	0.895846	-0.020977	2.647205
142.639012	1982.336353	0.900850	-0.021116	2.653412
143.238871	1993.343833	0.905855	-0.021231	2.659585
143.575693	2004.397521	0.910860	-0.021297	2.665723
143.967346	2015.399364	0.915865	-0.021373	2.671827
144.355107	2026.445250	0.920869	-0.021449	2.677941
144.933060	2037.415484	0.925874	-0.021560	2.684033
145.490882	2048.451604	0.930879	-0.021667	2.690143
145.818342	2059.478263	0.935884	-0.021731	2.696195
146.351020	2070.478587	0.940888	-0.021834	2.702253
146.968701	2081.494227	0.945893	-0.021953	2.708321
147.411260	2092.524000	0.950898	-0.022039	2.714352
148.033512	2103.514183	0.955902	-0.022158	2.720380
148.393414	2114.601603	0.960907	-0.022228	2.726401
148.820063	2125.591064	0.965912	-0.022311	2.732369
149.490076	2136.588238	0.970917	-0.022440	2.738368
150.106430	2147.585667	0.975921	-0.022558	2.744344
150.643722	2158.645537	0.980926	-0.022661	2.750328
151.030153	2169.674559	0.985931	-0.022737	2.756257
151.512587	2180.687771	0.990936	-0.022830	2.762181
151.836904	2191.712085	0.995940	-0.022894	2.768071
152.175080	2202.744725	1.000945	-0.022960	2.773956
152.431469	2213.747301	1.005950	-0.023011	2.779799
152.964856	2224.742250	1.010954	-0.023113	2.785671
153.523454	2235.781190	1.015959	-0.023221	2.791557
153.905789	2246.830962	1.020964	-0.023295	2.797408
154.352861	2257.799327	1.025969	-0.023382	2.803215
154.868391	2268.851198	1.030973	-0.023481	2.809064
155.488543	2279.827041	1.035978	-0.023601	2.814878
156.018710	2290.887923	1.040983	-0.023703	2.820709
156.320164	2301.911166	1.045988	-0.023762	2.826473
156.823160	2312.925720	1.050992	-0.023859	2.832252
157.321129	2323.918331	1.055997	-0.023955	2.838007
157.948646	2334.947828	1.061002	-0.024076	2.843790
158.319632	2345.988534	1.066006	-0.024148	2.849526
158.851584	2356.997439	1.071011	-0.024251	2.855259
159.163201	2368.021923	1.076016	-0.024312	2.860955
159.556365	2379.031428	1.081021	-0.024388	2.866643
160.064570	2390.059151	1.086025	-0.024486	2.872348
160.418760	2401.062177	1.091030	-0.024556	2.878005
161.092153	2412.068048	1.096035	-0.024685	2.883702
161.593100	2423.129017	1.101039	-0.024781	2.889388
161.881714	2434.150201	1.106044	-0.024838	2.895010
162.400771	2445.148617	1.111049	-0.024938	2.900645
162.796756	2456.138468	1.116054	-0.025015	2.906246
163.563930	2467.197481	1.121058	-0.025162	2.911928
163.859378	2478.192058	1.126063	-0.025220	2.917494
164.256514	2489.225611	1.131068	-0.025298	2.923084
164.587726	2500.255225	1.136073	-0.025362	2.928652
164.973066	2511.264078	1.141077	-0.025437	2.934206
165.641628	2522.257676	1.146082	-0.025566	2.939786
166.233272	2533.293784	1.151087	-0.025679	2.945364
166.446559	2544.334746	1.156091	-0.025722	2.950877
166.954212	2555.326909	1.161096	-0.025820	2.956399
167.582312	2566.337849	1.166101	-0.025941	2.961939
167.974026	2577.373284	1.171106	-0.026017	2.967444
168.559012	2588.382014	1.176110	-0.026129	2.972955
169.136348	2599.386192	1.181115	-0.026241	2.978452
169.442869	2610.440874	1.186120	-0.026301	2.983924
169.644169	2621.482864	1.191125	-0.026341	2.989364
170.118636	2632.426503	1.196129	-0.026433	2.994786
170.623231	2643.510108	1.201134	-0.026530	3.000270
171.041179	2654.484139	1.206139	-0.026612	3.005679
171.437162	2665.554388	1.211143	-0.026689	3.011121
171.647673	2676.531492	1.216148	-0.026731	3.016481
172.105351	2687.560006	1.221153	-0.026819	3.021893
172.389638	2698.569654	1.226158	-0.026876	3.027260
173.067253	2709.558477	1.231162	-0.027005	3.032665
173.526607	2720.616693	1.236167	-0.027094	3.038061
173.849032	2731.636617	1.241172	-0.027158	3.043410
174.340174	2742.650672	1.246177	-0.027252	3.048771
174.645564	2753.676155	1.251181	-0.027312	3.054101
175.324851	2764.638624	1.256186	-0.027443	3.059445
176.122336	2775.669557	1.261191	-0.027595	3.064829
176.471924	2786.741852	1.266195	-0.027663	3.070160
176.719576	2797.745913	1.271200	-0.027713	3.075434
177.226174	2808.749517	1.276205	-0.027810	3.080735
177.764193	2819.751462	1.281210	-0.027914	3.086031
178.202341	2830.793885	1.286214	-0.027999	3.091323
178.406636	2841.812537	1.291219	-0.028040	3.096562
178.822253	2852.808807	1.296224	-0.028121	3.101810
179.280417	2863.863313	1.301228	-0.028209	3.107084
179.659842	2874.842752	1.306233	-0.028283	3.112301
180.554501	2885.846896	1.311238	-0.028454	3.117593
180.747676	2896.929235	1.316243	-0.028493	3.122816
181.120939	2907.919298	1.321247	-0.028566	3.128011
181.451610	2918.935864	1.326252	-0.028630	3.133204
181.901679	2929.948074	1.331257	-0.028718	3.138403
182.375778	2940.933734	1.336262	-0.028809	3.143584
182.722241	2952.010357	1.341266	-0.028877	3.148781
183.089567	2962.997900	1.346271	-0.028949	3.153931
183.399446	2974.029352	1.351276	-0.029010	3.159085
183.620749	2985.043564	1.356280	-0.029054	3.164211
184.227086	2996.037247	1.361285	-0.029170	3.169371
184.476284	3007.071614	1.366290	-0.029220	3.174493
185.266899	3018.068185	1.371295	-0.029371	3.179661
185.666199	3029.087210	1.376299	-0.029449	3.184780
186.214748	3040.127298	1.381304	-0.029554	3.189919
186.897225	3051.105275	1.386309	-0.029685	3.195039
187.320442	3062.174736	1.391314	-0.029767	3.200159
187.794934	3073.157877	1.396318	-0.029859	3.205237
188.488323	3084.181215	1.401323	-0.029992	3.210355
188.743291	3095.206219	1.406328	-0.030042	3.215407
189.256365	3106.218245	1.411332	-0.030141	3.220480
189.737277	3117.222330	1.416337	-0.030234	3.225536
190.310472	3128.242394	1.421342	-0.030345	3.230604
190.849918	3139.265208	1.426347	-0.030448	3.235660
191.117547	3150.300344	1.431351	-0.030501	3.240679
191.360611	3161.323895	1.436356	-0.030550	3.245681
191.695371	3172.343914	1.441361	-0.030615	3.250686
192.037267	3183.315269	1.446366	-0.030682	3.255662
192.543427	3194.355513	1.451370	-0.030780	3.260683
192.852450	3205.376326	1.456375	-0.030841	3.265661
193.542376	3216.383495	1.461380	-0.030973	3.270675
193.959320	3227.418445	1.466384	-0.031054	3.275658
194.170394	3238.441857	1.471389	-0.031096	3.280603
194.566829	3249.455193	1.476394	-0.031173	3.285558
194.894702	3260.474184	1.481399	-0.031237	3.290501
195.380128	3271.456072	1.486403	-0.031331	3.295439
195.622561	3282.524027	1.491408	-0.031379	3.300377
195.993904	3293.491729	1.496413	-0.031452	3.305279
196.357214	3304.538438	1.501417	-0.031523	3.310208
196.558825	3315.551567	1.506422	-0.031563	3.315095
196.897639	3326.593318	1.511427	-0.031630	3.320004
197.249332	3337.567177	1.516432	-0.031698	3.324877
197.727724	3348.590629	1.521436	-0.031791	3.329781
198.109609	3359.606798	1.526441	-0.031865	3.334662
198.511285	3370.638183	1.531446	-0.031943	3.339545
198.785003	3381.639340	1.536451	-0.031997	3.344392
199.374541	3392.665777	1.541455	-0.032111	3.349282
199.823479	3403.648908	1.546460	-0.032198	3.354128
200.342161	3414.705512	1.551465	-0.032298	3.359008
200.611924	3425.699177	1.556469	-0.032351	3.363823
201.147898	3436.733470	1.561474	-0.032454	3.368681
201.226811	3447.740094	1.566479	-0.032472	3.373464
201.812757	3458.760468	1.571484	-0.032585	3.378308
202.332361	3469.748593	1.576488	-0.032685	3.383122
202.680273	3480.839898	1.581493	-0.032753	3.387954
202.904651	3491.779707	1.586498	-0.032798	3.392698
203.342571	3502.847476	1.591503	-0.032883	3.397517
203.658239	3513.826651	1.596507	-0.032945	3.402276
204.286708	3524.863278	1.601512	-0.033065	3.407090
204.699580	3535.861638	1.606517	-0.033145	3.411855
205.237628	3546.870212	1.611521	-0.033249	3.416633
205.528517	3557.910643	1.616526	-0.033306	3.421388
206.110181	3568.915432	1.621531	-0.033418	3.426155
206.397815	3579.940542	1.626536	-0.033475	3.430890
206.650159	3590.974038	1.631540	-0.033525	3.435618
207.117249	3601.952647	1.636545	-0.033615	3.440341
207.504763	3612.998174	1.641550	-0.033691	3.445076
207.942430	3624.011555	1.646555	-0.033776	3.449797
208.580002	3635.006062	1.651559	-0.033898	3.454527
208.933969	3646.039572	1.656564	-0.033967	3.459234
209.517458	3657.050541	1.661569	-0.034079	3.463951
210.070061	3668.072217	1.666573	-0.034186	3.468663
210.316774	3679.097569	1.671578	-0.034235	3.473334
210.612857	3690.102934	1.676583	-0.034293	3.477997
210.858839	3701.131847	1.681588	-0.034342	3.482657
211.121385	3712.136973	1.686592	-0.034394	3.487303
211.572341	3723.147348	1.691597	-0.034481	3.491966
211.943001	3734.169373	1.696602	-0.034554	3.496619
212.549346	3745.166891	1.701606	-0.034670	3.501282
212.842946	3756.201857	1.706611	-0.034728	3.505919
213.008763	3767.231712	1.711616	-0.034762	3.510533
213.274651	3778.226527	1.716621	-0.034814	3.515137
213.663191	3789.253853	1.721625	-0.034890	3.519763
214.240825	3800.248558	1.726630	-0.035001	3.524391
214.706493	3811.309677	1.731635	-0.035091	3.529027
214.843804	3822.300222	1.736640	-0.035120	3.533591
215.110895	3833.328993	1.741644	-0.035173	3.538179
215.451743	3844.326688	1.746649	-0.035239	3.542757
215.977041	3855.343750	1.751654	-0.035341	3.547357
216.369853	3866.324784	1.756658	-0.035417	3.551922
216.793144	3877.377445	1.761663	-0.035499	3.556514
217.138451	3888.383580	1.766668	-0.035567	3.561071
217.399278	3899.451191	1.771673	-0.035618	3.565639
217.786323	3910.369723	1.776677	-0.035694	3.570154
218.396982	3921.447182	1.781682	-0.035811	3.574752
218.716704	3932.436873	1.786687	-0.035874	3.579277
219.377443	3943.478217	1.791692	-0.036000	3.583854
219.628199	3954.493518	1.796696	-0.036050	3.588370
219.767902	3965.513405	1.801701	-0.036079	3.592870
220.103044	3976.520513	1.806706	-0.036145	3.597381
220.472097	3987.528865	1.811710	-0.036217	3.601889
220.687910	3998.556656	1.816715	-0.036260	3.606384
221.234833	4009.578328	1.821720	-0.036365	3.610906
221.491896	4020.572277	1.826725	-0.036416	3.615380
221.939568	4031.588327	1.831729	-0.036503	3.619877
222.282058	4042.621555	1.836734	-0.036570	3.624365
222.756893	4053.621354	1.841739	-0.036662	3.628847
222.987704	4064.660848	1.846744	-0.036708	3.633314
223.382116	4075.680280	1.851748	-0.036785	3.637785
223.421389	4086.681968	1.856753	-0.036795	3.642205
223.883301	4097.722876	1.861758	-0.036884	3.646681
224.170985	4108.739347	1.866762	-0.036941	3.651123
224.777841	4119.763717	1.871767	-0.037057	3.655595
225.175686	4130.762376	1.876772	-0.037135	3.660031
225.620077	4141.802460	1.881777	-0.037221	3.664482
225.904909	4152.822901	1.886781	-0.037277	3.668903
226.373174	4163.836361	1.891786	-0.037368	3.673335
226.664953	4174.862520	1.896791	-0.037425	3.677748
227.070100	4185.863925	1.901795	-0.037504	3.682158
227.492678	4196.885362	1.906800	-0.037586	3.686572
227.704424	4207.882245	1.911805	-0.037628	3.690949
228.080235	4218.901788	1.916810	-0.037702	3.695347
228.520929	4229.925831	1.921814	-0.037787	3.699748
228.881487	4240.929582	1.926819	-0.037857	3.704128
229.437704	4251.950603	1.931824	-0.037965	3.708529
229.590283	4262.985063	1.936829	-0.037996	3.712889
230.060693	4274.008351	1.941833	-0.038087	3.717272
230.689060	4284.964457	1.946838	-0.038208	3.721639
231.051406	4296.032149	1.951843	-0.038278	3.726017
231.324853	4307.002181	1.956847	-0.038332	3.730343
231.611125	4318.074467	1.961852	-0.038389	3.734706
231.806312	4329.041160	1.966857	-0.038428	3.739013
