Wed Nov 23 17:50:12 2022

Number of Points = 2200
Depth (nm)	Load (µN)	Time (s)	Depth (V)	Load (V)
-3.506464	1.058027	0.000000	0.042350	0.933988
0.000000	6.612548	0.005005	0.041690	0.944769
4.772189	15.224985	0.010009	0.040793	0.960864
8.840153	25.894699	0.015014	0.040027	0.979402
11.991317	37.169971	0.020019	0.039433	0.997985
13.995650	48.632712	0.025024	0.039054	1.015881
15.647485	59.957812	0.030028	0.038741	1.033082
16.836453	71.272358	0.035033	0.038515	1.049745
17.788840	82.532060	0.040038	0.038334	1.065950
18.669635	93.708598	0.045043	0.038165	1.081762
19.621851	104.851943	0.050047	0.037984	1.097335
20.375809	116.016088	0.055052	0.037840	1.112621
21.155944	127.162781	0.060057	0.037691	1.127689
21.841297	138.306177	0.065061	0.037559	1.142509
22.499100	149.444587	0.070066	0.037433	1.157118
24.339805	160.169249	0.075071	0.037085	1.171571
27.514171	171.208195	0.080076	0.036487	1.186847
28.218232	182.684957	0.085080	0.036352	1.201351
28.958725	193.877849	0.090085	0.036210	1.215353
30.021333	204.876402	0.095090	0.036008	1.229104
31.075528	216.045359	0.100094	0.035807	1.242900
38.487554	225.666636	0.105099	0.034414	1.257455
41.439040	237.714760	0.110104	0.033857	1.272763
42.877830	249.146313	0.115109	0.033585	1.286548
44.468680	260.300297	0.120113	0.033283	1.299934
46.125565	271.374781	0.125118	0.032970	1.313120
47.454466	282.529174	0.130123	0.032718	1.326130
48.609573	293.616594	0.135128	0.032498	1.338870
50.346704	304.598178	0.140132	0.032169	1.351603
51.446988	315.799411	0.145137	0.031960	1.364205
52.817266	326.843610	0.150142	0.031700	1.376627
53.885789	337.951194	0.155146	0.031497	1.388888
55.584100	348.936821	0.160151	0.031176	1.401153
56.780993	360.067025	0.165156	0.030948	1.413272
58.101568	371.148106	0.170161	0.030698	1.425283
59.052946	382.275571	0.175165	0.030517	1.437103
60.335287	393.310927	0.180170	0.030273	1.448854
61.321382	404.381332	0.185175	0.030085	1.460437
62.731597	415.412113	0.190180	0.029818	1.472042
63.898706	426.486279	0.195184	0.029596	1.483512
65.121293	437.561226	0.200189	0.029364	1.494913
66.378928	448.603219	0.205194	0.029125	1.506207
67.605859	459.685020	0.210198	0.028893	1.517445
68.563772	470.766392	0.215203	0.028710	1.528505
69.761398	481.833270	0.220208	0.028483	1.539554
70.552318	492.904003	0.225213	0.028331	1.550389
72.186965	503.878025	0.230217	0.028022	1.561342
72.930858	515.025842	0.235222	0.027880	1.572082
73.964187	526.048983	0.240227	0.027683	1.582729
75.060608	537.094696	0.245232	0.027475	1.593346
75.890416	548.197861	0.250236	0.027316	1.603858
76.918353	559.209907	0.255241	0.027120	1.614281
77.789178	570.308036	0.260246	0.026954	1.624665
78.809632	581.306905	0.265250	0.026760	1.634941
79.689828	592.386615	0.270255	0.026592	1.645180
80.368275	603.444360	0.275260	0.026462	1.655272
81.738330	614.411150	0.280265	0.026202	1.665439
82.867429	625.477427	0.285269	0.025988	1.675556
83.878151	636.561883	0.290274	0.025795	1.685591
84.974689	647.597753	0.295279	0.025587	1.695550
85.809793	658.676880	0.300283	0.025427	1.705408
86.707465	669.712734	0.305288	0.025256	1.715191
87.592505	680.766078	0.310293	0.025087	1.724928
88.314334	691.809629	0.315298	0.024949	1.734554
89.200852	702.855776	0.320302	0.024780	1.744177
90.154894	713.855833	0.325307	0.024598	1.753728
91.083005	724.944121	0.330312	0.024422	1.763294
92.065028	735.957559	0.335317	0.024235	1.772760
92.987138	747.003243	0.340321	0.024059	1.782185
93.916600	758.052130	0.345326	0.023882	1.791565
94.812013	769.095385	0.350331	0.023711	1.800882
95.694405	780.106554	0.355335	0.023543	1.810120
96.719081	791.176021	0.360340	0.023348	1.819398
97.468714	802.210016	0.365345	0.023204	1.828522
98.657470	813.242107	0.370350	0.022978	1.837723
98.986267	824.358522	0.375354	0.022914	1.846704
100.275165	835.261278	0.380359	0.022669	1.855739
101.100160	846.387095	0.385364	0.022512	1.864778
101.905250	857.417149	0.390369	0.022358	1.873691
102.815078	868.421815	0.395373	0.022185	1.882571
103.657645	879.509582	0.400378	0.022024	1.891456
104.491594	890.508624	0.405383	0.021865	1.900227
105.530107	901.533974	0.410387	0.021667	1.909033
105.974566	912.650251	0.415392	0.021581	1.917709
106.801572	923.640811	0.420397	0.021423	1.926351
107.629081	934.644038	0.425402	0.021265	1.934964
108.358814	945.736121	0.430406	0.021125	1.943581
109.042486	956.715394	0.435411	0.020994	1.952061
110.130485	967.750524	0.440416	0.020787	1.960652
111.034832	978.781540	0.445421	0.020615	1.969154
111.996694	989.824909	0.450425	0.020432	1.977644
112.518916	1000.898131	0.455430	0.020331	1.986006
113.436847	1011.888831	0.460435	0.020156	1.994373
113.887944	1022.968705	0.465439	0.020069	2.002652
114.942753	1033.948322	0.470444	0.019868	2.010975
115.921856	1045.017480	0.475449	0.019682	2.019310
116.615201	1056.044302	0.480454	0.019549	2.027508
117.304930	1067.088200	0.485458	0.019417	2.035684
118.180633	1078.104779	0.490463	0.019250	2.043853
119.011986	1089.116049	0.495468	0.019091	2.051975
119.778063	1100.198240	0.500472	0.018944	2.060100
120.509241	1111.185697	0.505477	0.018804	2.068116
121.210508	1122.252985	0.510482	0.018670	2.076150
121.570359	1133.319420	0.515487	0.018600	2.084070
122.554070	1144.265613	0.520491	0.018413	2.092025
123.244005	1155.345097	0.525496	0.018280	2.099972
124.199759	1166.318968	0.530501	0.018098	2.107879
124.743825	1177.421754	0.535506	0.017993	2.115749
125.572053	1188.407196	0.540510	0.017835	2.123574
126.334136	1199.433473	0.545515	0.017690	2.131383
126.809252	1210.515611	0.550520	0.017598	2.139135
127.372407	1221.514492	0.555524	0.017489	2.146821
128.429316	1232.493348	0.560529	0.017288	2.154581
128.961168	1243.587277	0.565534	0.017186	2.162270
129.776114	1254.585812	0.570539	0.017030	2.169932
130.661407	1265.585438	0.575543	0.016861	2.177583
131.328526	1276.677295	0.580548	0.016733	2.185220
132.065372	1287.658878	0.585553	0.016592	2.192771
132.701277	1298.724187	0.590558	0.016470	2.200330
133.150851	1309.742566	0.595562	0.016383	2.207789
134.309703	1320.729775	0.600567	0.016163	2.215361
134.625209	1331.826563	0.605572	0.016101	2.222791
135.255338	1342.827123	0.610576	0.015980	2.230203
135.642984	1353.870887	0.615581	0.015905	2.237565
136.623940	1364.817092	0.620586	0.015718	2.244969
137.263884	1375.924318	0.625591	0.015595	2.252379
137.633269	1386.992101	0.630595	0.015523	2.259680
138.162314	1397.928170	0.635600	0.015421	2.266906
138.799990	1409.006015	0.640605	0.015299	2.274224
139.518960	1419.960111	0.645610	0.015161	2.281456
140.355784	1431.026377	0.650614	0.015001	2.288763
140.891474	1442.068890	0.655619	0.014898	2.295966
141.438826	1453.100335	0.660624	0.014793	2.303143
141.886780	1464.109277	0.665628	0.014706	2.310261
142.634048	1475.123124	0.670633	0.014563	2.317423
142.961143	1486.208900	0.675638	0.014499	2.324520
143.645005	1497.172733	0.680643	0.014368	2.331594
144.254573	1508.204558	0.685647	0.014251	2.338673
144.784965	1519.272915	0.690652	0.014148	2.345737
145.521179	1530.216187	0.695657	0.014007	2.352743
146.440374	1541.264112	0.700661	0.013832	2.359832
146.999288	1552.299918	0.705666	0.013725	2.366818
147.794111	1563.343384	0.710671	0.013573	2.373836
148.047811	1574.378958	0.715676	0.013522	2.380718
148.592698	1585.391838	0.720680	0.013417	2.387625
149.158636	1596.399272	0.725685	0.013309	2.394512
149.844850	1607.432028	0.730690	0.013177	2.401420
150.387854	1618.458374	0.735695	0.013072	2.408275
151.238561	1629.475260	0.740699	0.012910	2.415166
151.535061	1640.518859	0.745704	0.012852	2.421943
152.101418	1651.529504	0.750709	0.012743	2.428734
152.819254	1662.525516	0.755713	0.012605	2.435527
153.483982	1673.577198	0.760718	0.012478	2.442325
154.015223	1684.612378	0.765723	0.012375	2.449067
154.465293	1695.643817	0.770728	0.012288	2.455772
154.620788	1706.674311	0.775732	0.012256	2.462401
155.346172	1717.669480	0.780737	0.012117	2.469102
155.833229	1728.690848	0.785742	0.012023	2.475754
156.646307	1739.695852	0.790747	0.011868	2.482441
157.112822	1750.736024	0.795751	0.011778	2.489063
157.811624	1761.774147	0.800756	0.011644	2.495712
158.258128	1772.789044	0.805761	0.011557	2.502281
158.940302	1783.784947	0.810765	0.011427	2.508866
159.657939	1794.804562	0.815770	0.011289	2.515454
160.291263	1805.850393	0.820775	0.011168	2.522024
160.735347	1816.906200	0.825780	0.011082	2.528547
161.213754	1827.902868	0.830784	0.010989	2.535025
161.699829	1838.900783	0.835789	0.010895	2.541489
162.541345	1849.942900	0.840794	0.010735	2.548028
162.878382	1860.966486	0.845799	0.010669	2.554445
163.317575	1871.995111	0.850803	0.010584	2.560868
163.638096	1883.044780	0.855808	0.010521	2.567265
164.247895	1894.059651	0.860813	0.010404	2.573679
164.745766	1905.056973	0.865817	0.010307	2.580047
165.428644	1916.076784	0.870822	0.010177	2.586445
166.074057	1927.078237	0.875827	0.010053	2.592811
166.637839	1938.119736	0.880832	0.009944	2.599168
166.877840	1949.158965	0.885836	0.009896	2.605449
167.652291	1960.140791	0.890841	0.009748	2.611780
168.102402	1971.179891	0.895846	0.009661	2.618069
168.714486	1982.191864	0.900850	0.009544	2.624356
169.159051	1993.237945	0.905855	0.009457	2.630617
169.524316	2004.255915	0.910860	0.009386	2.636834
170.005349	2015.281990	0.915865	0.009293	2.643061
170.406540	2026.296304	0.920869	0.009215	2.649252
171.005032	2037.282871	0.925874	0.009100	2.655448
171.899549	2048.298411	0.930879	0.008930	2.661698
172.409454	2059.322733	0.935884	0.008831	2.667870
173.025256	2070.344762	0.940888	0.008713	2.674045
173.242006	2081.386458	0.945893	0.008669	2.680147
173.875768	2092.373962	0.950898	0.008548	2.686278
174.269751	2103.427854	0.955902	0.008471	2.692389
174.924831	2114.417928	0.960907	0.008346	2.698497
175.345862	2125.454299	0.965912	0.008264	2.704575
176.086867	2136.455904	0.970917	0.008122	2.710676
176.215203	2147.523037	0.975921	0.008095	2.716694
176.935144	2158.514602	0.980926	0.007957	2.722758
177.459973	2169.495673	0.985931	0.007856	2.728770
177.937463	2180.586801	0.990936	0.007764	2.734819
178.258362	2191.571292	0.995940	0.007701	2.740771
178.622956	2202.621771	1.000945	0.007630	2.746754
179.080843	2213.588034	1.005950	0.007541	2.752693
179.730077	2224.626976	1.010954	0.007417	2.758691
180.229260	2235.652614	1.015959	0.007320	2.764643
180.827208	2246.672334	1.020964	0.007205	2.770595
180.999199	2257.704584	1.025969	0.007170	2.776471
181.705687	2268.715831	1.030973	0.007035	2.782411
181.934240	2279.747230	1.035978	0.006989	2.788270
182.623524	2290.716660	1.040983	0.006857	2.794160
183.002041	2301.796172	1.045988	0.006784	2.800045
183.508237	2312.784644	1.050992	0.006686	2.805890
184.022970	2323.810125	1.055997	0.006587	2.811743
184.668455	2334.826388	1.061002	0.006463	2.817601
185.236305	2345.820893	1.066006	0.006353	2.823422
185.689292	2356.887014	1.071011	0.006266	2.829250
186.052212	2367.899020	1.076016	0.006195	2.835023
186.306446	2378.944014	1.081021	0.006144	2.840784
186.677620	2389.926007	1.086025	0.006072	2.846519
187.310479	2400.943075	1.091030	0.005951	2.852303
187.694897	2411.964014	1.096035	0.005876	2.858037
188.029359	2423.007745	1.101039	0.005810	2.863763
188.407833	2433.999473	1.106044	0.005736	2.869459
188.931841	2445.016955	1.111049	0.005635	2.875178
189.383475	2456.051717	1.116054	0.005548	2.880884
189.948634	2467.081383	1.121058	0.005439	2.886594
190.456266	2478.089771	1.126063	0.005341	2.892272
190.955384	2489.102691	1.131068	0.005245	2.897940
191.171855	2500.129349	1.136073	0.005201	2.903560
191.620307	2511.142480	1.141077	0.005115	2.909198
192.068017	2522.159773	1.146082	0.005028	2.914827
192.604637	2533.179175	1.151087	0.004924	2.920460
193.047560	2544.189397	1.156091	0.004839	2.926062
193.885576	2555.194204	1.161096	0.004679	2.931712
194.257805	2566.217075	1.166101	0.004606	2.937288
194.975892	2577.237354	1.171106	0.004469	2.942906
195.390495	2588.270938	1.176110	0.004388	2.948472
195.716655	2599.329499	1.181115	0.004324	2.954028
195.960040	2610.299180	1.186120	0.004276	2.959516
196.751963	2621.303996	1.191125	0.004124	2.965094
197.077136	2632.373996	1.196129	0.004061	2.970623
197.547090	2643.363636	1.201134	0.003970	2.976124
198.130718	2654.365119	1.206139	0.003858	2.981637
198.674127	2665.379469	1.211143	0.003753	2.987141
199.203883	2676.419506	1.216148	0.003651	2.992645
199.657872	2687.436420	1.221153	0.003563	2.998116
200.160927	2698.455363	1.226158	0.003466	3.003585
200.628844	2709.494024	1.231162	0.003375	3.009048
200.925249	2720.476724	1.236167	0.003317	3.014449
201.456817	2731.530109	1.241172	0.003214	3.019909
201.687821	2742.541279	1.246177	0.003168	3.025295
202.334618	2753.514016	1.251181	0.003044	3.030713
202.981523	2764.557405	1.256186	0.002920	3.036155
203.653599	2775.576957	1.261191	0.002791	3.041580
204.105446	2786.591462	1.266195	0.002704	3.046960
204.587973	2797.625207	1.271200	0.002610	3.052345
204.984260	2808.620223	1.276205	0.002533	3.057689
205.251968	2819.679097	1.281210	0.002480	3.063036
205.586074	2830.698040	1.286214	0.002415	3.068363
206.040036	2841.690391	1.291219	0.002327	3.073686
206.551845	2852.680520	1.296224	0.002228	3.079006
207.202060	2863.705494	1.301228	0.002104	3.084354
207.783144	2874.755718	1.306233	0.001992	3.089694
208.185318	2885.751762	1.311238	0.001914	3.094974
208.808411	2896.771456	1.316243	0.001794	3.100287
209.412549	2907.796537	1.321247	0.001678	3.105591
209.748801	2918.829037	1.326252	0.001612	3.110851
210.126744	2929.821242	1.331257	0.001538	3.116090
210.708395	2940.850555	1.336262	0.001427	3.121365
211.215282	2951.876657	1.341266	0.001329	3.126619
211.594657	2962.884830	1.346271	0.001255	3.131839
212.164743	2973.899029	1.351276	0.001145	3.137078
212.496878	2984.918673	1.356280	0.001080	3.142279
212.865298	2995.948953	1.361285	0.001008	3.147481
213.218005	3006.952891	1.366290	0.000939	3.152659
213.657586	3017.990792	1.371295	0.000854	3.157857
214.099508	3028.970683	1.376299	0.000768	3.163020
214.752308	3040.011711	1.381304	0.000643	3.168231
215.226123	3051.015955	1.386309	0.000552	3.173392
215.676628	3062.056901	1.391314	0.000464	3.178558
215.997714	3073.057911	1.396318	0.000401	3.183680
216.553689	3084.077706	1.401323	0.000294	3.188834
216.891862	3095.101880	1.406328	0.000228	3.193952
217.564848	3106.106614	1.411332	0.000099	3.199098
217.934550	3117.128608	1.416337	0.000027	3.204202
218.434753	3128.166864	1.421342	-0.000070	3.209324
218.604350	3139.168751	1.426347	-0.000104	3.214376
219.059408	3150.182812	1.431351	-0.000192	3.219464
219.381077	3161.206737	1.436356	-0.000255	3.224531
219.708757	3172.236984	1.441361	-0.000320	3.229593
220.147999	3183.223784	1.446366	-0.000405	3.234643
220.466693	3194.273302	1.451370	-0.000467	3.239697
220.903399	3205.265698	1.456375	-0.000552	3.244732
221.345315	3216.302446	1.461380	-0.000638	3.249780
221.918323	3227.261672	1.466384	-0.000748	3.254803
222.526573	3238.320469	1.471389	-0.000865	3.259867
222.886866	3249.340517	1.476394	-0.000935	3.264873
223.434250	3260.359665	1.481399	-0.001040	3.269895
223.490915	3271.386460	1.486403	-0.001054	3.274850
224.208072	3282.385376	1.491408	-0.001191	3.279870
224.700397	3293.392102	1.496413	-0.001286	3.284856
225.233834	3304.439987	1.501417	-0.001389	3.289859
225.466098	3315.434213	1.506422	-0.001435	3.294791
226.122556	3326.444233	1.511427	-0.001561	3.299777
226.649413	3337.462790	1.516432	-0.001663	3.304743
227.095113	3348.495493	1.521436	-0.001749	3.309697
227.511983	3359.497681	1.526441	-0.001830	3.314626
227.840998	3370.552899	1.531446	-0.001895	3.319560
228.077656	3381.534437	1.536451	-0.001942	3.324443
228.554557	3392.566955	1.541455	-0.002034	3.329371
228.941353	3403.548909	1.546460	-0.002109	3.334258
229.423966	3414.603350	1.551465	-0.002203	3.339182
229.831694	3425.594754	1.556469	-0.002282	3.344061
230.230451	3436.633635	1.561474	-0.002359	3.348953
230.699074	3447.624420	1.566479	-0.002450	3.353825
231.204353	3458.662758	1.571484	-0.002548	3.358716
231.472938	3469.660514	1.576488	-0.002601	3.363552
231.955499	3480.715237	1.581493	-0.002694	3.368432
232.194434	3491.697750	1.586498	-0.002741	3.373244
232.630489	3502.728544	1.591503	-0.002826	3.378094
232.990678	3513.733559	1.596507	-0.002896	3.382917
233.401225	3524.772958	1.601512	-0.002976	3.387753
233.646647	3535.784513	1.606517	-0.003025	3.392551
234.232741	3546.773814	1.611521	-0.003138	3.397373
234.769462	3557.790906	1.616526	-0.003241	3.402195
235.346834	3568.846875	1.621531	-0.003352	3.407031
235.699281	3579.823551	1.626536	-0.003421	3.411799
236.185080	3590.852948	1.631540	-0.003515	3.416598
236.391351	3601.879221	1.636545	-0.003556	3.421357
236.807371	3612.899976	1.641550	-0.003637	3.426131
237.048603	3623.912734	1.646555	-0.003685	3.430874
237.540994	3634.916686	1.651559	-0.003780	3.435637
238.002008	3645.916523	1.656564	-0.003869	3.440387
238.550046	3656.971699	1.661569	-0.003975	3.445165
238.978468	3667.967177	1.666573	-0.004058	3.449896
239.616171	3678.970383	1.671578	-0.004180	3.454649
239.999728	3690.013043	1.676583	-0.004255	3.459382
240.448398	3701.014206	1.681588	-0.004342	3.464098
240.741441	3712.067695	1.686592	-0.004400	3.468812
241.217432	3723.035240	1.691597	-0.004492	3.473504
241.807975	3734.049515	1.696602	-0.004605	3.478223
242.177166	3745.105924	1.701606	-0.004677	3.482928
242.472834	3756.088707	1.706611	-0.004736	3.487586
242.964382	3767.110115	1.711616	-0.004831	3.492278
243.217890	3778.141205	1.716621	-0.004881	3.496939
243.631866	3789.159819	1.721625	-0.004961	3.501607
243.839375	3800.178989	1.726630	-0.005003	3.506246
244.096095	3811.186089	1.731635	-0.005054	3.510879
244.405743	3822.198797	1.736640	-0.005115	3.515514
244.846343	3833.225165	1.741644	-0.005200	3.520164
245.214209	3844.217291	1.746649	-0.005272	3.524785
245.612797	3855.287933	1.751654	-0.005349	3.529436
245.778508	3866.266006	1.756658	-0.005383	3.534016
246.426706	3877.291931	1.761663	-0.005507	3.538664
246.592243	3888.287883	1.766668	-0.005541	3.543239
247.148782	3899.314061	1.771673	-0.005648	3.547864
247.477628	3910.314577	1.776677	-0.005713	3.552448
248.082706	3921.331546	1.781682	-0.005829	3.557063
248.308199	3932.364855	1.786687	-0.005874	3.561636
248.739933	3943.398783	1.791692	-0.005958	3.566227
248.991678	3954.374911	1.796696	-0.006008	3.570768
249.279061	3965.424898	1.801701	-0.006065	3.575337
249.670673	3976.408765	1.806706	-0.006141	3.579885
250.336815	3987.445505	1.811710	-0.006268	3.584479
250.520426	3998.459706	1.816715	-0.006306	3.589004
250.899555	4009.479277	1.821720	-0.006379	3.593548
251.277644	4020.498872	1.826725	-0.006453	3.598085
251.519240	4031.513950	1.831729	-0.006501	3.602600
252.086709	4042.506858	1.836734	-0.006610	3.607136
252.701203	4053.519272	1.841739	-0.006728	3.611679
253.137617	4064.534228	1.846744	-0.006813	3.616198
253.717362	4075.562256	1.851748	-0.006925	3.620731
253.878600	4086.587655	1.856753	-0.006958	3.625213
254.344848	4097.622441	1.861758	-0.007048	3.629726
254.650340	4108.654410	1.866762	-0.007108	3.634215
255.278148	4119.676964	1.871767	-0.007228	3.638729
255.619212	4130.683338	1.876772	-0.007295	3.643200
255.970731	4141.742698	1.881777	-0.007364	3.647688
256.335037	4152.703809	1.886781	-0.007435	3.652132
256.707676	4163.747995	1.891786	-0.007508	3.656605
257.167563	4174.727759	1.896791	-0.007597	3.661055
257.688165	4185.787246	1.901795	-0.007697	3.665539
257.825467	4196.799711	1.906800	-0.007725	3.669958
258.285444	4207.797236	1.911805	-0.007814	3.674399
258.481714	4218.819636	1.916810	-0.007854	3.678817
258.799490	4229.858150	1.921814	-0.007916	3.683249
259.169896	4240.858809	1.926819	-0.007989	3.687666
259.540852	4251.868127	1.931824	-0.008061	3.692082
259.878788	4262.878325	1.936829	-0.008127	3.696488
260.348352	4273.872383	1.941833	-0.008218	3.700897
260.526904	4284.930488	1.946838	-0.008254	3.705296
260.969910	4295.930753	1.951843	-0.008340	3.709693
261.065299	4306.959660	1.956847	-0.008361	3.714061
261.379157	4317.965524	1.961852	-0.008422	3.718437
261.873448	4328.967181	1.966857	-0.008518	3.722825
262.303152	4340.010874	1.971862	-0.008601	3.727217
262.763369	4350.967150	1.976866	-0.008690	3.731573
263.232323	4362.027414	1.981871	-0.008781	3.735965
263.530947	4373.005733	1.986876	-0.008840	3.740303
264.046527	4384.088594	1.991881	-0.008939	3.744699
