Wed Nov 23 18:28:15 2022

Number of Points = 2200
Depth (nm)	Load (µN)	Time (s)	Depth (V)	Load (V)
-2.565465	1.229105	0.000000	-0.015498	1.099341
0.000000	7.799905	0.005005	-0.015981	1.109316
1.662044	17.337883	0.010009	-0.016295	1.122644
2.707811	28.234428	0.015014	-0.016494	1.137274
3.662276	39.338082	0.020019	-0.016676	1.151939
4.435370	50.466463	0.025024	-0.016824	1.166366
5.226262	61.592705	0.030028	-0.016975	1.180621
5.878382	72.733012	0.035033	-0.017100	1.194661
6.485535	83.856865	0.040038	-0.017217	1.208497
6.928101	95.009084	0.045043	-0.017303	1.222138
7.453980	106.078850	0.050047	-0.017404	1.235566
7.964246	117.169192	0.055052	-0.017503	1.248867
8.533728	128.254747	0.060057	-0.017612	1.262048
9.022198	139.353110	0.065061	-0.017707	1.275072
9.389876	150.492603	0.070066	-0.017778	1.287961
9.903186	161.571930	0.075071	-0.017877	1.300714
17.965605	171.000956	0.080076	-0.019393	1.314566
21.076848	183.110425	0.085080	-0.019979	1.329239
22.446859	194.544390	0.090085	-0.020239	1.342322
23.613541	205.711016	0.095090	-0.020461	1.354909
24.993184	216.745880	0.100094	-0.020723	1.367321
26.370034	227.863509	0.105099	-0.020984	1.379708
27.455143	238.951139	0.110104	-0.021190	1.391841
28.817097	250.019087	0.115109	-0.021448	1.403952
29.621144	261.159875	0.120113	-0.021602	1.415825
30.587636	272.221230	0.125118	-0.021786	1.427578
31.601939	283.260954	0.130123	-0.021979	1.439230
32.731310	294.318150	0.135128	-0.022194	1.450847
34.365769	305.296264	0.140132	-0.022503	1.462475
35.378173	316.465212	0.145137	-0.022696	1.473977
36.144451	327.572339	0.150142	-0.022842	1.485241
36.872138	338.648823	0.155146	-0.022982	1.496376
37.883074	349.659957	0.160151	-0.023174	1.507463
38.993927	360.702949	0.165156	-0.023385	1.518535
39.417711	371.893796	0.170161	-0.023468	1.529431
40.832554	382.716840	0.175165	-0.023736	1.540238
42.052527	393.880827	0.180170	-0.023967	1.551225
42.540075	405.037957	0.185175	-0.024062	1.561882
43.563122	415.982727	0.190180	-0.024256	1.572447
44.552375	427.072974	0.195184	-0.024445	1.583065
45.458824	438.086834	0.200189	-0.024617	1.593513
46.327221	449.203069	0.205194	-0.024783	1.603975
47.127461	460.254110	0.210198	-0.024936	1.614286
48.141649	471.263445	0.215203	-0.025129	1.624563
48.803802	482.355545	0.220208	-0.025256	1.634737
49.596101	493.385821	0.225213	-0.025408	1.644834
50.477586	504.424881	0.230217	-0.025576	1.654905
51.004075	515.544151	0.235222	-0.025677	1.664873
52.200783	526.449814	0.240227	-0.025904	1.674804
52.937201	537.578763	0.245232	-0.026045	1.684727
53.839069	548.616353	0.250236	-0.026217	1.694564
55.467667	559.514939	0.255241	-0.026526	1.704445
56.248790	570.710556	0.260246	-0.026675	1.714265
57.204289	581.720061	0.265250	-0.026857	1.723924
58.297841	592.753114	0.270255	-0.027065	1.733590
59.204463	603.812804	0.275260	-0.027238	1.743168
60.248309	614.835211	0.280265	-0.027436	1.752703
61.029604	625.930827	0.285269	-0.027586	1.762170
62.014761	636.943489	0.290274	-0.027773	1.771577
62.723251	648.008608	0.295279	-0.027909	1.780896
63.437182	659.048130	0.300283	-0.028046	1.790148
64.247958	670.103759	0.305288	-0.028201	1.799392
65.025480	681.122254	0.310293	-0.028349	1.808549
66.114513	692.132453	0.315298	-0.028556	1.817741
66.910855	703.172107	0.320302	-0.028708	1.826828
67.800546	714.247579	0.325307	-0.028878	1.835923
68.735531	725.248148	0.330312	-0.029056	1.844927
69.725202	736.288159	0.335317	-0.029245	1.853933
70.651179	747.357911	0.340321	-0.029421	1.862900
71.245734	758.404553	0.345326	-0.029535	1.871716
71.784181	769.475854	0.350331	-0.029639	1.880495
72.601743	780.461688	0.355335	-0.029795	1.889241
73.172164	791.534989	0.360340	-0.029905	1.897948
73.756911	802.557602	0.365345	-0.030018	1.906579
74.779396	813.544130	0.370350	-0.030212	1.915261
75.601962	824.589498	0.375354	-0.030369	1.923894
76.487934	835.625560	0.380359	-0.030538	1.932498
77.150404	846.724272	0.385364	-0.030665	1.941052
77.782504	857.717867	0.390369	-0.030787	1.949482
78.360966	868.765799	0.395373	-0.030898	1.957902
78.589292	879.855467	0.400378	-0.030943	1.966227
79.164943	890.836748	0.405383	-0.031054	1.974525
79.968883	901.822492	0.410387	-0.031208	1.982850
80.595322	912.910025	0.415392	-0.031328	1.991169
81.346244	923.892481	0.420397	-0.031472	1.999408
82.185640	934.940436	0.425402	-0.031632	2.007682
82.761434	946.030112	0.430406	-0.031743	2.015887
83.265840	957.029925	0.435411	-0.031840	2.023976
83.809264	968.053362	0.440416	-0.031945	2.032059
84.473913	979.076315	0.445421	-0.032072	2.040139
85.351975	990.088257	0.450425	-0.032240	2.048231
85.837320	1001.161807	0.455430	-0.032334	2.056239
86.250093	1012.215512	0.460435	-0.032414	2.064185
86.914447	1023.196143	0.465439	-0.032541	2.072108
87.705320	1034.243307	0.470444	-0.032692	2.080079
88.169919	1045.286517	0.475449	-0.032782	2.087938
88.888742	1056.333033	0.480454	-0.032920	2.095830
89.501633	1067.324108	0.485458	-0.033037	2.103629
89.899753	1078.400687	0.490463	-0.033115	2.111407
90.339543	1089.410364	0.495468	-0.033200	2.119120
90.936979	1100.421063	0.500472	-0.033315	2.126842
91.738352	1111.441293	0.505477	-0.033468	2.134590
92.137249	1122.509616	0.510482	-0.033546	2.142250
92.500831	1133.546484	0.515487	-0.033617	2.149852
93.227095	1144.499855	0.520491	-0.033756	2.157455
93.919875	1155.580569	0.525496	-0.033888	2.165108
94.473141	1166.601822	0.530501	-0.033995	2.172663
95.198149	1177.620044	0.535506	-0.034134	2.180228
95.681392	1188.660824	0.540510	-0.034227	2.187727
96.333454	1199.677587	0.545515	-0.034352	2.195223
96.887689	1210.713191	0.550520	-0.034459	2.202683
97.402289	1221.720757	0.555524	-0.034558	2.210090
98.263018	1232.757051	0.560529	-0.034722	2.217568
98.781086	1243.796583	0.565534	-0.034822	2.224947
99.383035	1254.805463	0.570539	-0.034938	2.232300
99.993384	1265.852456	0.575543	-0.035055	2.239656
100.597053	1276.848588	0.580548	-0.035171	2.246952
101.001667	1287.938515	0.585553	-0.035250	2.254242
101.727283	1298.909832	0.590558	-0.035389	2.261502
102.188459	1309.946410	0.595562	-0.035478	2.268722
102.504355	1321.018594	0.600567	-0.035540	2.275912
103.115891	1331.983057	0.605572	-0.035658	2.283073
103.586405	1343.055664	0.610576	-0.035749	2.290250
103.774411	1354.085158	0.615581	-0.035787	2.297318
104.541715	1365.045478	0.620586	-0.035933	2.304442
105.122336	1376.092437	0.625591	-0.036045	2.311559
105.771779	1387.133205	0.630595	-0.036170	2.318665
106.146370	1398.151095	0.635600	-0.036243	2.325677
106.675167	1409.196803	0.640605	-0.036345	2.332718
107.195314	1420.207128	0.645610	-0.036445	2.339713
107.854085	1431.202835	0.650614	-0.036571	2.346706
108.317340	1442.269925	0.655619	-0.036661	2.353683
108.803740	1453.262080	0.660624	-0.036755	2.360597
109.326778	1464.318130	0.665628	-0.036856	2.367538
109.846198	1475.337626	0.670633	-0.036956	2.374435
110.347309	1486.332420	0.675638	-0.037053	2.381293
111.047996	1497.360796	0.680643	-0.037187	2.388192
111.588274	1508.403819	0.685647	-0.037291	2.395048
112.095373	1519.422237	0.690652	-0.037389	2.401862
112.595793	1530.438384	0.695657	-0.037485	2.408654
113.335766	1541.464018	0.700661	-0.037627	2.415480
113.669529	1552.481815	0.705666	-0.037692	2.422202
114.269204	1563.519888	0.710671	-0.037808	2.428969
115.118921	1574.498424	0.715676	-0.037970	2.435731
115.998523	1585.526116	0.720680	-0.038138	2.442509
116.675489	1596.573226	0.725685	-0.038267	2.449240
117.268012	1607.603745	0.730690	-0.038381	2.455926
117.810214	1618.616635	0.735695	-0.038486	2.462574
118.370585	1629.661819	0.740699	-0.038594	2.469226
118.947850	1640.650903	0.745704	-0.038705	2.475830
119.371546	1651.730759	0.750709	-0.038787	2.482440
119.897166	1662.721469	0.755713	-0.038888	2.489000
120.497358	1673.741986	0.760718	-0.039004	2.495574
120.801455	1684.791211	0.765723	-0.039063	2.502091
121.462415	1695.763090	0.770728	-0.039190	2.508614
122.124360	1706.786467	0.775732	-0.039317	2.515149
122.627547	1717.853132	0.780737	-0.039414	2.521663
123.119807	1728.867299	0.785742	-0.039509	2.528127
123.601297	1739.867253	0.790747	-0.039602	2.534565
124.204654	1750.883401	0.795751	-0.039718	2.541017
125.142747	1761.882787	0.800756	-0.039897	2.547506
125.724410	1772.937427	0.805761	-0.040009	2.553944
126.248713	1783.970842	0.810765	-0.040110	2.560342
126.642407	1794.992043	0.815770	-0.040187	2.566694
127.291110	1806.042737	0.820775	-0.040311	2.573093
127.642894	1817.085967	0.825780	-0.040380	2.579418
128.181926	1828.038685	0.830784	-0.040484	2.585710
128.615406	1839.092551	0.835789	-0.040568	2.592025
129.203493	1850.085579	0.840794	-0.040681	2.598318
129.838159	1861.085872	0.845799	-0.040803	2.604607
130.449052	1872.133501	0.850803	-0.040920	2.610904
130.980703	1883.143590	0.855808	-0.041023	2.617150
131.631576	1894.194537	0.860813	-0.041147	2.623425
131.878588	1905.210172	0.865817	-0.041196	2.629594
132.521198	1916.209112	0.870822	-0.041320	2.635809
132.980283	1927.244425	0.875827	-0.041409	2.641997
133.701271	1938.245880	0.880832	-0.041547	2.648197
134.521258	1949.246038	0.885836	-0.041703	2.654399
134.926568	1960.340073	0.890841	-0.041782	2.660566
135.357802	1971.333014	0.895846	-0.041866	2.666668
135.787493	1982.361906	0.900850	-0.041949	2.672775
136.035656	1993.362368	0.905855	-0.041998	2.678821
136.713039	2004.398648	0.910860	-0.042128	2.684947
137.012830	2015.421531	0.915865	-0.042187	2.690986
137.455087	2026.443050	0.920869	-0.042273	2.697036
137.867226	2037.455467	0.925874	-0.042353	2.703061
138.336956	2048.442409	0.930879	-0.042444	2.709070
138.919735	2059.459394	0.935884	-0.042556	2.715100
139.408306	2070.510312	0.940888	-0.042650	2.721119
139.817905	2081.497438	0.945893	-0.042730	2.727077
140.453739	2092.538017	0.950898	-0.042852	2.733088
140.810236	2103.536136	0.955902	-0.042922	2.739017
141.755398	2114.507876	0.960907	-0.043102	2.745017
142.551385	2125.560947	0.965912	-0.043254	2.751022
143.326854	2136.599027	0.970917	-0.043402	2.757002
143.719622	2147.652271	0.975921	-0.043478	2.762914
144.243372	2158.621879	0.980926	-0.043579	2.768790
144.657933	2169.670279	0.985931	-0.043660	2.774678
145.144326	2180.697087	0.990936	-0.043754	2.780553
145.611234	2191.695496	0.995940	-0.043844	2.786398
146.238604	2202.727371	1.000945	-0.043965	2.792274
146.665448	2213.727109	1.005950	-0.044047	2.798088
147.414386	2224.755770	1.010954	-0.044191	2.803957
147.875832	2235.794903	1.015959	-0.044280	2.809772
148.422490	2246.799751	1.020964	-0.044385	2.815572
148.888949	2257.822625	1.025969	-0.044476	2.821356
149.387785	2268.838114	1.030973	-0.044572	2.827129
149.933690	2279.882174	1.035978	-0.044677	2.832912
150.180398	2290.882193	1.040983	-0.044726	2.838614
150.663453	2301.897407	1.045988	-0.044819	2.844349
151.141427	2312.941881	1.050992	-0.044912	2.850087
151.513621	2323.924489	1.055997	-0.044984	2.855764
151.927270	2334.974178	1.061002	-0.045065	2.861471
152.319424	2345.980666	1.066006	-0.045141	2.867141
152.725472	2356.999001	1.071011	-0.045220	2.872808
152.972532	2368.028024	1.076016	-0.045269	2.878445
153.499436	2379.030187	1.081021	-0.045371	2.884100
154.143116	2390.054657	1.086025	-0.045494	2.889773
154.576229	2401.091046	1.091030	-0.045578	2.895409
154.909549	2412.080046	1.096035	-0.045644	2.900994
155.504191	2423.110287	1.101039	-0.045758	2.906629
155.951680	2434.126548	1.106044	-0.045845	2.912224
156.457434	2445.159865	1.111049	-0.045942	2.917825
156.877532	2456.149132	1.116054	-0.046024	2.923381
157.387546	2467.184438	1.121058	-0.046122	2.928962
157.697608	2478.224956	1.126063	-0.046183	2.934505
158.125509	2489.211297	1.131068	-0.046266	2.940028
158.798254	2500.216338	1.136073	-0.046395	2.945586
159.426422	2511.274768	1.141077	-0.046516	2.951154
159.681326	2522.289474	1.146082	-0.046566	2.956634
160.114893	2533.296834	1.151087	-0.046650	2.962126
160.572315	2544.311562	1.156091	-0.046739	2.967616
161.217248	2555.312844	1.161096	-0.046863	2.973116
161.719743	2566.352719	1.166101	-0.046960	2.978604
162.201340	2577.370029	1.171106	-0.047053	2.984068
162.384434	2588.408421	1.176110	-0.047090	2.989487
162.717280	2599.421361	1.181115	-0.047155	2.994907
163.076465	2610.431945	1.186120	-0.047225	3.000319
163.569874	2621.441803	1.191125	-0.047320	3.005741
163.871948	2632.488263	1.196129	-0.047380	3.011143
163.964552	2643.501505	1.201134	-0.047400	3.016488
164.181309	2654.503681	1.206139	-0.047443	3.021837
164.599167	2665.515954	1.211143	-0.047524	3.027210
165.143377	2676.524122	1.216148	-0.047629	3.032589
165.690740	2687.566452	1.221153	-0.047735	3.037976
166.134717	2698.545870	1.226158	-0.047821	3.043308
166.674400	2709.596752	1.231162	-0.047925	3.048678
167.058514	2720.608167	1.236167	-0.048000	3.053998
167.466097	2731.625680	1.241172	-0.048079	3.059315
167.749439	2742.642675	1.246177	-0.048135	3.064605
168.122780	2753.681858	1.251181	-0.048207	3.069908
168.413688	2764.678785	1.256186	-0.048265	3.075171
168.603957	2775.737214	1.261191	-0.048303	3.080440
168.865949	2786.719598	1.266195	-0.048355	3.085673
169.420810	2797.733516	1.271200	-0.048462	3.090954
169.730520	2808.726002	1.276205	-0.048523	3.096181
170.198769	2819.771576	1.281210	-0.048613	3.101446
170.551675	2830.791990	1.286214	-0.048682	3.106675
170.992693	2841.807391	1.291219	-0.048768	3.111904
171.351829	2852.815196	1.296224	-0.048838	3.117110
171.793906	2863.854821	1.301228	-0.048924	3.122333
172.161591	2874.846239	1.306233	-0.048995	3.127515
172.519083	2885.898826	1.311238	-0.049065	3.132715
172.771900	2896.879297	1.316243	-0.049115	3.137858
173.011720	2907.917513	1.321247	-0.049163	3.143018
173.342574	2918.943444	1.326252	-0.049228	3.148176
173.827567	2929.948150	1.331257	-0.049321	3.153337
174.114973	2940.958799	1.336262	-0.049378	3.158465
174.643646	2951.979547	1.341266	-0.049480	3.163622
174.942512	2963.013931	1.346271	-0.049539	3.168746
175.185772	2974.026300	1.351276	-0.049587	3.173844
175.453555	2985.033169	1.356280	-0.049640	3.178934
175.794381	2996.046955	1.361285	-0.049707	3.184029
176.124117	3007.072404	1.366290	-0.049772	3.189120
176.370244	3018.099046	1.371295	-0.049820	3.194192
176.557445	3029.098920	1.376299	-0.049858	3.199236
176.920551	3040.131952	1.381304	-0.049929	3.204310
177.425758	3051.126640	1.386309	-0.050027	3.209378
177.654419	3062.169593	1.391314	-0.050072	3.214422
177.688325	3073.180225	1.396318	-0.050081	3.219419
178.203487	3084.176202	1.401323	-0.050181	3.224464
178.737087	3095.186694	1.406328	-0.050284	3.229510
179.297521	3106.213465	1.411332	-0.050392	3.234559
179.839702	3117.243180	1.416337	-0.050496	3.239599
180.090172	3128.268844	1.421342	-0.050546	3.244592
180.245731	3139.290288	1.426347	-0.050578	3.249562
180.470116	3150.303466	1.431351	-0.050622	3.254530
180.762732	3161.286252	1.436356	-0.050680	3.259486
181.424283	3172.302793	1.441361	-0.050807	3.264496
182.005688	3183.336742	1.446366	-0.050919	3.269496
182.482622	3194.341594	1.451370	-0.051011	3.274462
182.830558	3205.384985	1.456375	-0.051079	3.279421
183.163942	3216.384201	1.461380	-0.051144	3.284351
183.513624	3227.425216	1.466384	-0.051213	3.289294
183.790497	3238.419271	1.471389	-0.051267	3.294199
184.039095	3249.444381	1.476394	-0.051317	3.299108
185.025262	3260.411227	1.481399	-0.051504	3.304075
185.528163	3271.478038	1.486403	-0.051602	3.309019
185.930854	3282.478898	1.491408	-0.051680	3.313914
186.292000	3293.500363	1.496413	-0.051750	3.318805
186.674081	3304.516164	1.501417	-0.051825	3.323689
187.068640	3315.552864	1.506422	-0.051901	3.328577
187.256777	3326.552360	1.511427	-0.051940	3.333415
187.502430	3337.583264	1.516432	-0.051988	3.338267
188.059670	3348.587833	1.521436	-0.052096	3.343139
188.477585	3359.596579	1.526441	-0.052177	3.347989
188.755063	3370.624544	1.531446	-0.052232	3.352822
189.098622	3381.655901	1.536451	-0.052299	3.357658
189.362657	3392.645883	1.541455	-0.052351	3.362459
189.649769	3403.682860	1.546460	-0.052408	3.367277
190.292736	3414.656564	1.551465	-0.052531	3.372103
190.757554	3425.721725	1.556469	-0.052621	3.376940
191.091349	3436.724664	1.561474	-0.052686	3.381728
191.362291	3447.740750	1.566479	-0.052740	3.386507
191.968988	3458.737911	1.571484	-0.052856	3.391311
192.163593	3469.780899	1.576488	-0.052896	3.396079
192.617833	3480.764473	1.581493	-0.052984	3.400845
192.944260	3491.834411	1.586498	-0.053048	3.405626
193.270334	3502.818081	1.591503	-0.053112	3.410364
193.565629	3513.839767	1.596507	-0.053170	3.415108
194.073191	3524.841703	1.601512	-0.053268	3.419861
194.341665	3535.876455	1.606517	-0.053321	3.424594
194.727979	3546.895627	1.611521	-0.053396	3.429327
194.717158	3557.915776	1.616526	-0.053397	3.434008
195.368701	3568.911836	1.621531	-0.053522	3.438749
195.468352	3579.944517	1.626536	-0.053543	3.443435
195.990400	3590.942503	1.631540	-0.053644	3.448149
196.161452	3601.984531	1.636545	-0.053679	3.452834
196.683341	3612.965334	1.641550	-0.053779	3.457527
197.081249	3624.005216	1.646555	-0.053857	3.462225
197.596366	3635.014974	1.651559	-0.053956	3.466917
197.781760	3646.044189	1.656564	-0.053994	3.471573
198.148097	3657.052286	1.661569	-0.054065	3.476234
198.431670	3668.051903	1.666573	-0.054121	3.480877
199.094344	3679.064497	1.671578	-0.054248	3.485561
199.076654	3690.128581	1.676583	-0.054247	3.490183
199.481163	3701.111008	1.681588	-0.054326	3.494813
199.553222	3712.150139	1.686592	-0.054342	3.499423
199.856395	3723.150817	1.691597	-0.054402	3.504037
200.106462	3734.186713	1.696602	-0.054452	3.508653
200.280251	3745.203895	1.701606	-0.054487	3.513246
200.507940	3756.195435	1.706611	-0.054532	3.517830
201.034554	3767.180944	1.711616	-0.054634	3.522438
201.269355	3778.260252	1.716621	-0.054681	3.527046
201.448784	3789.258791	1.721625	-0.054717	3.531608
201.664003	3800.264334	1.726630	-0.054760	3.536172
202.233120	3811.251825	1.731635	-0.054870	3.540761
202.642230	3822.293395	1.736640	-0.054949	3.545349
203.108765	3833.298460	1.741644	-0.055039	3.549922
203.710094	3844.304000	1.746649	-0.055155	3.554504
204.280367	3855.321962	1.751654	-0.055265	3.559082
204.514554	3866.373776	1.756658	-0.055311	3.563631
204.924379	3877.385995	1.761663	-0.055391	3.568177
204.961482	3888.397586	1.766668	-0.055401	3.572676
205.279124	3899.387942	1.771673	-0.055463	3.577191
205.820526	3910.396402	1.776677	-0.055567	3.581732
206.402034	3921.410934	1.781682	-0.055679	3.586274
206.873528	3932.460049	1.786687	-0.055770	3.590813
207.304658	3943.442666	1.791692	-0.055854	3.595314
207.790198	3954.485892	1.796696	-0.055948	3.599840
208.067999	3965.505983	1.801701	-0.056003	3.604329
208.421313	3976.512295	1.806706	-0.056072	3.608814
208.793496	3987.522976	1.811710	-0.056144	3.613298
209.095557	3998.559260	1.816715	-0.056204	3.617778
209.523311	4009.539009	1.821720	-0.056287	3.622244
209.890270	4020.588381	1.826725	-0.056358	3.626726
210.078813	4031.595373	1.831729	-0.056396	3.631166
210.357062	4042.610274	1.836734	-0.056451	3.635613
210.544919	4053.625285	1.841739	-0.056489	3.640045
211.044340	4064.630489	1.846744	-0.056586	3.644501
211.403446	4075.660683	1.851748	-0.056656	3.648946
211.639642	4086.687603	1.856753	-0.056703	3.653372
211.932633	4097.721051	1.861758	-0.056761	3.657801
212.287347	4108.770798	1.866762	-0.056830	3.662237
212.552471	4119.743793	1.871767	-0.056882	3.666629
212.819840	4130.788580	1.876772	-0.056935	3.671043
213.333780	4141.784103	1.881777	-0.057034	3.675458
213.651637	4152.808173	1.886781	-0.057097	3.679859
214.164590	4163.822527	1.891786	-0.057196	3.684271
214.334980	4174.855114	1.896791	-0.057230	3.688649
214.831470	4185.835187	1.901795	-0.057326	3.693035
215.217509	4196.885951	1.906800	-0.057402	3.697432
215.681064	4207.863479	1.911805	-0.057491	3.701803
215.758980	4218.916185	1.916810	-0.057509	3.706158
215.831996	4229.919629	1.921814	-0.057525	3.710489
216.277955	4240.933508	1.926819	-0.057611	3.714857
216.631588	4251.935173	1.931824	-0.057680	3.719205
216.811331	4262.971741	1.936829	-0.057717	3.723545
217.287528	4273.983298	1.941833	-0.057809	3.727899
217.609467	4285.007064	1.946838	-0.057872	3.732237
217.895091	4296.008436	1.951843	-0.057928	3.736558
218.347407	4307.012049	1.956847	-0.058016	3.740891
218.776759	4318.041929	1.961852	-0.058099	3.745227
218.752199	4329.071116	1.966857	-0.058098	3.749513
