Wed Nov 23 18:09:14 2022

Number of Points = 2200
Depth (nm)	Load (µN)	Time (s)	Depth (V)	Load (V)
0.000000	2.193036	0.000000	0.030491	0.972101
4.116948	7.134259	0.005005	0.029718	0.981863
8.811422	15.832373	0.010009	0.028835	0.997415
12.374541	26.594282	0.015014	0.028163	1.015116
14.848534	37.943756	0.020019	0.027696	1.032774
16.494824	49.324211	0.025024	0.027385	1.049747
17.845072	60.633548	0.030028	0.027128	1.066199
18.551566	71.911563	0.035033	0.026993	1.082034
19.409097	83.095525	0.040038	0.026829	1.097588
19.743932	94.305359	0.045043	0.026764	1.112704
20.496320	105.408866	0.050047	0.026620	1.127678
20.938473	116.568509	0.055052	0.026534	1.142381
21.411947	127.693189	0.060057	0.026443	1.156867
23.506424	138.250587	0.065061	0.026047	1.171209
28.212026	149.115187	0.070066	0.025161	1.186947
29.130057	160.789588	0.075071	0.024986	1.201767
30.654245	171.878705	0.080076	0.024697	1.215965
32.146174	183.003908	0.085080	0.024415	1.230028
33.882351	194.048567	0.090085	0.024086	1.243940
35.134049	205.245291	0.095090	0.023849	1.257669
36.382561	216.374926	0.100094	0.023612	1.271169
37.382259	227.469423	0.105099	0.023421	1.284382
39.277980	238.456075	0.110104	0.023063	1.297708
40.459180	249.667683	0.115109	0.022838	1.310858
42.046323	260.656326	0.120113	0.022538	1.323793
42.798372	271.878531	0.125118	0.022394	1.336524
43.811028	282.945173	0.130123	0.022201	1.349068
44.992554	293.979359	0.135128	0.021977	1.361527
46.070430	305.080492	0.140132	0.021772	1.373904
47.011378	316.182818	0.145137	0.021592	1.386118
47.802560	327.291559	0.150142	0.021441	1.398175
48.554581	338.348037	0.155146	0.021297	1.410058
49.962447	349.336469	0.160151	0.021030	1.422017
50.945485	360.428308	0.165156	0.020843	1.433824
52.114283	371.502809	0.170161	0.020621	1.445585
52.944045	382.621531	0.175165	0.020463	1.457171
54.046793	393.620316	0.180170	0.020253	1.468643
55.057446	404.697580	0.185175	0.020061	1.480072
56.199488	415.756449	0.190180	0.019844	1.491440
57.384286	426.793281	0.195184	0.019619	1.502715
58.469239	437.900056	0.200189	0.019412	1.513939
59.359102	448.963067	0.205194	0.019243	1.524970
60.195250	460.069068	0.210198	0.019083	1.535943
61.022505	471.097363	0.215203	0.018925	1.546762
62.131429	482.114993	0.220208	0.018714	1.557590
63.183872	493.158624	0.225213	0.018514	1.568348
64.336261	504.226661	0.230217	0.018295	1.579088
65.136630	515.322843	0.235222	0.018142	1.589665
66.106408	526.346947	0.240227	0.017957	1.600161
66.973844	537.403367	0.245232	0.017792	1.610584
68.021689	548.448653	0.250236	0.017593	1.620987
68.883862	559.523834	0.255241	0.017428	1.631292
70.016993	570.538508	0.260246	0.017213	1.641563
70.516956	581.645688	0.265250	0.017116	1.651651
71.710944	592.617701	0.270255	0.016889	1.661777
72.402021	603.733262	0.275260	0.016757	1.671810
73.626637	614.702885	0.280265	0.016524	1.681821
74.244456	625.845999	0.285269	0.016406	1.691736
75.064969	636.852212	0.290274	0.016249	1.701536
75.730354	647.937844	0.295279	0.016121	1.711301
76.743974	658.914619	0.300283	0.015929	1.721022
77.513268	669.977149	0.305288	0.015781	1.730688
78.577612	680.995416	0.310293	0.015579	1.740350
79.390612	692.064847	0.315298	0.015424	1.749927
80.313503	703.114124	0.320302	0.015248	1.759467
80.783440	714.200248	0.325307	0.015157	1.768853
81.901691	725.163338	0.330312	0.014944	1.778276
82.706137	736.243300	0.335317	0.014791	1.787654
83.336888	747.309163	0.340321	0.014670	1.796922
83.885708	758.360392	0.345326	0.014564	1.806106
84.730917	769.366689	0.350331	0.014403	1.815291
85.392815	780.405815	0.355335	0.014276	1.824405
86.543333	791.375270	0.360340	0.014057	1.833554
87.400910	802.475818	0.365345	0.013893	1.842680
88.096225	813.546179	0.370350	0.013760	1.851692
88.786756	824.558331	0.375354	0.013628	1.860612
89.882901	835.547316	0.380359	0.013419	1.869583
90.695364	846.619381	0.385364	0.013264	1.878498
91.621623	857.648029	0.390369	0.013088	1.887367
92.383330	868.722372	0.395373	0.012942	1.896186
93.122738	879.752670	0.400378	0.012801	1.904923
93.541012	890.804540	0.405383	0.012719	1.913551
94.448186	901.800543	0.410387	0.012546	1.922227
94.992013	912.873281	0.415392	0.012442	1.930827
95.992438	923.860569	0.420397	0.012251	1.939443
96.409193	934.935055	0.425402	0.012170	1.947933
97.292785	945.948532	0.430406	0.012002	1.956463
97.756667	957.017806	0.435411	0.011912	1.964888
98.602268	967.988867	0.440416	0.011751	1.973302
99.705997	979.002943	0.445421	0.011541	1.981778
100.432923	990.089800	0.450425	0.011402	1.990175
101.030947	1001.142607	0.455430	0.011287	1.998478
101.502852	1012.175959	0.460435	0.011195	2.006701
102.036250	1023.231197	0.465439	0.011093	2.014922
102.811608	1034.205075	0.470444	0.010944	2.023111
103.403014	1045.264457	0.475449	0.010831	2.031282
104.062494	1056.294056	0.480454	0.010704	2.039415
104.722674	1067.325535	0.485458	0.010578	2.047518
105.556738	1078.330901	0.490463	0.010418	2.055612
106.226603	1089.405092	0.495468	0.010290	2.063683
106.866369	1100.426515	0.500472	0.010167	2.071678
107.441889	1111.452581	0.505477	0.010056	2.079629
107.951085	1122.506954	0.510482	0.009958	2.087554
108.592219	1133.530178	0.515487	0.009835	2.095459
109.133295	1144.539279	0.520491	0.009731	2.103300
109.862519	1155.540088	0.525496	0.009591	2.111150
110.417806	1166.620381	0.530501	0.009484	2.118985
110.873972	1177.646632	0.535506	0.009396	2.126730
111.320187	1188.693535	0.540510	0.009310	2.134459
111.928960	1199.663375	0.545515	0.009193	2.142145
112.806731	1210.701869	0.550520	0.009025	2.149912
113.175822	1221.767613	0.555524	0.008953	2.157552
113.824532	1232.777901	0.560529	0.008829	2.165192
114.471254	1243.820171	0.565534	0.008705	2.172826
114.935753	1254.831174	0.570539	0.008615	2.180370
115.584227	1265.832725	0.575543	0.008490	2.187923
116.532632	1276.861753	0.580548	0.008310	2.195536
116.996317	1287.915724	0.585553	0.008220	2.203031
117.665454	1298.941063	0.590558	0.008092	2.210526
118.093529	1309.978530	0.595562	0.008009	2.217951
118.754495	1320.982265	0.600567	0.007882	2.225379
119.289636	1332.026850	0.605572	0.007779	2.232782
120.058058	1343.037125	0.610576	0.007632	2.240189
120.498495	1354.088279	0.615581	0.007546	2.247527
121.191224	1365.114254	0.620586	0.007414	2.254878
121.502176	1376.142873	0.625591	0.007353	2.262125
122.243310	1387.125381	0.630595	0.007211	2.269411
122.871713	1398.182611	0.635600	0.007090	2.276698
123.553796	1409.184181	0.640605	0.006959	2.283937
124.105505	1420.235385	0.645610	0.006853	2.291157
124.639442	1431.271185	0.650614	0.006750	2.298340
125.147610	1442.272149	0.655619	0.006652	2.305473
125.755916	1453.298757	0.660624	0.006535	2.312621
126.436590	1464.316211	0.665628	0.006405	2.319757
127.283178	1475.323696	0.670633	0.006243	2.326899
127.797809	1486.401989	0.675638	0.006144	2.333994
128.378456	1497.391488	0.680643	0.006032	2.341025
128.960889	1508.429084	0.685647	0.005920	2.348065
129.698847	1519.445236	0.690652	0.005779	2.355103
129.952052	1530.506401	0.695657	0.005729	2.362048
130.595306	1541.509319	0.700661	0.005605	2.369016
130.825422	1552.538534	0.705666	0.005559	2.375896
131.491019	1563.544685	0.710671	0.005432	2.382830
132.053487	1574.574289	0.715676	0.005324	2.389737
132.834053	1585.585955	0.720680	0.005174	2.396657
133.234592	1596.637048	0.725685	0.005097	2.403504
133.855254	1607.644808	0.730690	0.004977	2.410350
134.181398	1618.700984	0.735695	0.004913	2.417147
134.815601	1629.687123	0.740699	0.004792	2.423943
135.351234	1640.693762	0.745704	0.004688	2.430713
136.192110	1651.701246	0.750709	0.004528	2.437525
136.651447	1662.799532	0.755713	0.004439	2.444297
137.095548	1673.788211	0.760718	0.004353	2.450981
137.668329	1684.808830	0.765723	0.004243	2.457691
138.291479	1695.822506	0.770728	0.004123	2.464389
138.881422	1706.855334	0.775732	0.004010	2.471073
139.299501	1717.889928	0.780737	0.003928	2.477706
139.700227	1728.907055	0.785742	0.003851	2.484308
140.355262	1739.923969	0.790747	0.003725	2.490942
140.697294	1750.981989	0.795751	0.003658	2.497521
141.360150	1761.940157	0.800756	0.003531	2.504086
141.905581	1773.008576	0.805761	0.003426	2.510676
142.211970	1784.027949	0.810765	0.003366	2.517174
142.606469	1795.064851	0.815770	0.003289	2.523682
143.229628	1806.030433	0.820775	0.003169	2.530175
144.103590	1817.046896	0.825780	0.003002	2.536728
144.728980	1828.109392	0.830784	0.002882	2.543243
145.026898	1839.137579	0.835789	0.002824	2.549661
145.406039	1850.174836	0.840794	0.002750	2.556084
145.654255	1861.192199	0.845799	0.002701	2.562454
146.264741	1872.194351	0.850803	0.002583	2.568866
146.695740	1883.288080	0.855808	0.002500	2.575282
147.107101	1894.217235	0.860813	0.002420	2.581584
147.618088	1905.276136	0.865817	0.002321	2.587963
147.900519	1916.306543	0.870822	0.002265	2.594268
148.485406	1927.277695	0.875827	0.002153	2.600579
149.041180	1938.318869	0.880832	0.002046	2.606908
149.682119	1949.337611	0.885836	0.001923	2.613225
150.389091	1960.314337	0.890841	0.001788	2.619515
150.737859	1971.409979	0.895846	0.001719	2.625792
151.145240	1982.419676	0.900850	0.001640	2.632016
151.680117	1993.408594	0.905855	0.001537	2.638237
152.206774	2004.447302	0.910860	0.001436	2.644469
152.662793	2015.477220	0.915865	0.001347	2.650669
152.865897	2026.519153	0.920869	0.001306	2.656816
153.357242	2037.524480	0.925874	0.001212	2.662980
153.939866	2048.483855	0.930879	0.001100	2.669119
154.383666	2059.540571	0.935884	0.001013	2.675274
154.688270	2070.568285	0.940888	0.000954	2.681374
155.171789	2081.584281	0.945893	0.000860	2.687485
155.718776	2092.561245	0.950898	0.000755	2.693572
156.323141	2103.601853	0.955902	0.000639	2.699689
156.769978	2114.617390	0.960907	0.000552	2.705752
157.421279	2125.642121	0.965912	0.000427	2.711841
157.811150	2136.687072	0.970917	0.000351	2.717882
158.306944	2147.680313	0.975921	0.000256	2.723900
158.841254	2158.707275	0.980926	0.000153	2.729929
159.354727	2169.733864	0.985931	0.000053	2.735941
159.805928	2180.755379	0.990936	-0.000034	2.741927
160.289052	2191.769921	0.995940	-0.000127	2.747901
160.790197	2202.771782	1.000945	-0.000224	2.753858
161.343101	2213.813570	1.005950	-0.000331	2.759832
161.648392	2224.834589	1.010954	-0.000391	2.765741
162.183059	2235.854390	1.015959	-0.000494	2.771674
162.670744	2246.858826	1.020964	-0.000588	2.777579
163.238186	2257.884292	1.025969	-0.000697	2.783495
163.667398	2268.901713	1.030973	-0.000780	2.789371
164.199998	2279.936248	1.035978	-0.000883	2.795261
164.572610	2290.944465	1.040983	-0.000956	2.801099
165.054598	2302.000581	1.045988	-0.001049	2.806967
165.497894	2312.988390	1.050992	-0.001135	2.812781
166.112305	2323.978122	1.055997	-0.001253	2.818611
166.484096	2335.027573	1.061002	-0.001325	2.824421
167.026399	2346.055224	1.066006	-0.001430	2.830235
167.342568	2357.058023	1.071011	-0.001492	2.835988
167.901937	2368.096555	1.076016	-0.001599	2.841787
168.401391	2379.081763	1.081021	-0.001696	2.847536
168.770611	2390.150612	1.086025	-0.001768	2.853296
169.235930	2401.114148	1.091030	-0.001858	2.859006
169.830847	2412.172313	1.096035	-0.001972	2.864773
170.065059	2423.202768	1.101039	-0.002019	2.870457
170.549499	2434.179016	1.106044	-0.002113	2.876141
170.933198	2445.229351	1.111049	-0.002187	2.881837
171.545132	2456.212284	1.116054	-0.002305	2.887522
172.047952	2467.281822	1.121058	-0.002402	2.893223
172.417078	2478.276669	1.126063	-0.002474	2.898853
172.787633	2489.289804	1.131068	-0.002546	2.904483
173.131988	2500.335852	1.136073	-0.002614	2.910114
173.437147	2511.317086	1.141077	-0.002674	2.915695
174.117099	2522.344456	1.146082	-0.002804	2.921346
174.552181	2533.354131	1.151087	-0.002888	2.926940
175.006298	2544.393920	1.156091	-0.002976	2.932540
175.303388	2555.406921	1.161096	-0.003035	2.938093
175.718994	2566.406932	1.166101	-0.003115	2.943647
176.159464	2577.455769	1.171106	-0.003201	2.949218
176.616838	2588.468087	1.176110	-0.003289	2.954763
176.821839	2599.498839	1.181115	-0.003330	2.960269
177.205076	2610.500767	1.186120	-0.003405	2.965777
177.613770	2621.522831	1.191125	-0.003485	2.971288
178.058549	2632.537185	1.196129	-0.003571	2.976791
178.524232	2643.522341	1.201134	-0.003661	2.982271
179.214319	2654.572972	1.206139	-0.003793	2.987808
179.563231	2665.583528	1.211143	-0.003861	2.993263
179.874759	2676.623920	1.216148	-0.003922	2.998718
180.251593	2687.621655	1.221153	-0.003996	3.004152
180.635400	2698.659394	1.226158	-0.004071	3.009596
181.212836	2709.627303	1.231162	-0.004182	3.015024
181.691891	2720.694634	1.236167	-0.004274	3.020477
181.922664	2731.703775	1.241172	-0.004320	3.025855
182.354899	2742.723338	1.246177	-0.004404	3.031258
182.637919	2753.740531	1.251181	-0.004460	3.036629
183.238038	2764.742244	1.256186	-0.004575	3.042028
183.695522	2775.769835	1.261191	-0.004664	3.047409
184.056789	2786.798091	1.266195	-0.004734	3.052768
184.285651	2797.802338	1.271200	-0.004780	3.058086
184.714978	2808.813842	1.276205	-0.004863	3.063427
185.285515	2819.825854	1.281210	-0.004973	3.068779
185.772800	2830.867433	1.286214	-0.005067	3.074124
186.269610	2841.861077	1.291219	-0.005163	3.079438
186.653849	2852.916195	1.296224	-0.005238	3.084756
186.975705	2863.916616	1.301228	-0.005301	3.090030
187.468227	2874.921843	1.306233	-0.005396	3.095321
187.952977	2885.936203	1.311238	-0.005490	3.100606
188.503695	2896.955004	1.316243	-0.005596	3.105894
188.654689	2907.993426	1.321247	-0.005627	3.111126
189.104357	2918.989641	1.326252	-0.005714	3.116370
189.497222	2930.018954	1.331257	-0.005791	3.121614
190.055783	2941.021758	1.336262	-0.005898	3.126859
190.296129	2952.063299	1.341266	-0.005946	3.132069
190.828377	2963.047689	1.346271	-0.006049	3.137284
191.158110	2974.082315	1.351276	-0.006113	3.142486
191.651089	2985.110454	1.356280	-0.006208	3.147698
192.165601	2996.108823	1.361285	-0.006308	3.152891
192.576114	3007.151620	1.366290	-0.006388	3.158082
192.961785	3018.145576	1.371295	-0.006463	3.163238
193.197299	3029.206481	1.376299	-0.006510	3.168396
193.547072	3040.198278	1.381304	-0.006578	3.173529
193.881198	3051.204011	1.386309	-0.006643	3.178658
194.419266	3062.209768	1.391314	-0.006747	3.183806
195.067518	3073.235077	1.396318	-0.006871	3.188970
195.371557	3084.259421	1.401323	-0.006931	3.194078
195.590858	3095.301165	1.406328	-0.006975	3.199175
196.057000	3106.288415	1.411332	-0.007065	3.204272
196.911843	3117.295664	1.416337	-0.007228	3.209421
197.215108	3128.313678	1.421342	-0.007288	3.214494
197.668931	3139.362019	1.426347	-0.007376	3.219592
197.802402	3150.356956	1.431351	-0.007404	3.224616
198.302157	3161.387093	1.436356	-0.007500	3.229696
198.735275	3172.382058	1.441361	-0.007584	3.234743
199.333392	3183.404302	1.446366	-0.007699	3.239815
199.619518	3194.439682	1.451370	-0.007756	3.244846
199.961231	3205.473029	1.456375	-0.007822	3.249874
200.304644	3216.430502	1.461380	-0.007890	3.254861
200.612187	3227.500765	1.466384	-0.007950	3.259886
201.197175	3238.466448	1.471389	-0.008062	3.264892
201.768355	3249.532851	1.476394	-0.008172	3.269934
201.926061	3260.533855	1.481399	-0.008205	3.274886
202.325256	3271.560784	1.486403	-0.008282	3.279872
202.543040	3282.570040	1.491408	-0.008326	3.284820
203.128775	3293.580009	1.496413	-0.008439	3.289807
203.885365	3304.569778	1.501417	-0.008583	3.294800
204.014345	3315.646204	1.506422	-0.008610	3.299743
204.242568	3326.634460	1.511427	-0.008656	3.304653
204.450787	3337.664698	1.516432	-0.008698	3.309571
204.600546	3348.663960	1.521436	-0.008728	3.314461
205.251285	3359.680183	1.526441	-0.008853	3.319414
205.779489	3370.657672	1.531446	-0.008955	3.324327
206.224068	3381.750017	1.536451	-0.009041	3.329273
206.471700	3392.721974	1.541455	-0.009090	3.334134
206.890351	3403.754255	1.546460	-0.009172	3.339036
207.330526	3414.728752	1.551465	-0.009257	3.343907
207.715063	3425.811654	1.556469	-0.009332	3.348812
207.892793	3436.792412	1.561474	-0.009368	3.353640
208.221656	3447.821694	1.566479	-0.009432	3.358500
208.394260	3458.831029	1.571484	-0.009467	3.363326
209.099592	3469.858698	1.576488	-0.009603	3.368217
209.391202	3480.850454	1.581493	-0.009660	3.373035
209.713842	3491.884746	1.586498	-0.009723	3.377869
210.025471	3502.895757	1.591503	-0.009784	3.382684
210.420763	3513.923152	1.596507	-0.009861	3.387509
210.771100	3524.917835	1.601512	-0.009930	3.392308
211.394318	3535.924557	1.606517	-0.010049	3.397138
211.873856	3546.955035	1.611521	-0.010142	3.401954
212.291794	3557.991215	1.616526	-0.010223	3.406758
212.544251	3569.005189	1.621531	-0.010273	3.411526
212.809525	3580.015252	1.626536	-0.010326	3.416287
213.088797	3591.026116	1.631540	-0.010381	3.421044
213.620617	3602.045943	1.636545	-0.010484	3.425827
213.942287	3613.071287	1.641550	-0.010547	3.430581
214.144073	3624.078148	1.646555	-0.010587	3.435307
214.309403	3635.092866	1.651559	-0.010621	3.440025
214.984400	3646.105218	1.656564	-0.010750	3.444795
215.436924	3657.133948	1.661569	-0.010838	3.449540
215.922453	3668.141242	1.666573	-0.010932	3.454272
216.167299	3679.161181	1.671578	-0.010981	3.458976
216.495132	3690.183098	1.676583	-0.011045	3.463683
216.659826	3701.202407	1.681588	-0.011078	3.468364
217.359268	3712.181572	1.686592	-0.011212	3.473083
217.909740	3723.197958	1.691597	-0.011318	3.477795
218.501230	3734.232651	1.696602	-0.011432	3.482512
218.735338	3745.265632	1.701606	-0.011479	3.487181
218.825248	3756.286891	1.706611	-0.011498	3.491822
218.976041	3767.300306	1.711616	-0.011529	3.496461
219.569783	3778.273927	1.716621	-0.011644	3.501127
219.963048	3789.345034	1.721625	-0.011720	3.505805
220.210663	3800.322967	1.726630	-0.011769	3.510422
220.352479	3811.381797	1.731635	-0.011799	3.515053
220.815338	3822.344840	1.736640	-0.011888	3.519676
221.275438	3833.379760	1.741644	-0.011977	3.524321
221.773882	3844.416264	1.746649	-0.012073	3.528965
221.687183	3855.425429	1.751654	-0.012060	3.533526
222.196045	3866.432177	1.756658	-0.012158	3.538147
222.322957	3877.442402	1.761663	-0.012185	3.542721
222.906743	3888.454598	1.766668	-0.012297	3.547340
223.306734	3899.462454	1.771673	-0.012375	3.551931
223.862122	3910.471811	1.776677	-0.012482	3.556534
224.218273	3921.515469	1.781682	-0.012551	3.561122
224.465329	3932.537742	1.786687	-0.012600	3.565684
224.767526	3943.534449	1.791692	-0.012660	3.570236
225.172160	3954.545375	1.796696	-0.012738	3.574799
225.560552	3965.570523	1.801701	-0.012814	3.579360
226.102763	3976.587204	1.806706	-0.012918	3.583928
226.408408	3987.616015	1.811710	-0.012979	3.588470
226.741621	3998.611917	1.816715	-0.013044	3.592995
226.966875	4009.641618	1.821720	-0.013089	3.597516
227.695148	4020.623341	1.826725	-0.013228	3.602067
228.137841	4031.659607	1.831729	-0.013314	3.606604
228.598941	4042.680660	1.836734	-0.013403	3.611130
228.701493	4053.715799	1.841739	-0.013425	3.615618
229.129502	4064.694493	1.846744	-0.013508	3.620112
229.653181	4075.722051	1.851748	-0.013609	3.624630
230.038842	4086.754043	1.856753	-0.013684	3.629130
230.141693	4097.799104	1.861758	-0.013706	3.633599
230.384485	4108.846418	1.866762	-0.013755	3.638078
230.539831	4119.842222	1.871767	-0.013786	3.642522
230.827543	4130.867154	1.876772	-0.013843	3.646986
231.321113	4141.849252	1.881777	-0.013939	3.651450
231.673439	4152.890990	1.886781	-0.014007	3.655916
231.902352	4163.910399	1.891786	-0.014053	3.660356
232.196118	4174.927910	1.896791	-0.014111	3.664795
232.421842	4185.931573	1.901795	-0.014156	3.669217
232.903701	4196.937110	1.906800	-0.014249	3.673661
233.090457	4207.978853	1.911805	-0.014287	3.678083
233.608212	4218.984317	1.916810	-0.014387	3.682520
233.563270	4230.028058	1.921814	-0.014381	3.686908
233.903445	4240.978869	1.926819	-0.014448	3.691293
234.365557	4252.011188	1.931824	-0.014537	3.695719
235.000579	4263.016825	1.936829	-0.014659	3.700146
235.368801	4274.069332	1.941833	-0.014731	3.704559
235.533789	4285.072815	1.946838	-0.014764	3.708926
235.693268	4296.098755	1.951843	-0.014797	3.713297
236.188419	4307.099073	1.956847	-0.014893	3.717686
236.722219	4318.110743	1.961852	-0.014996	3.722079
237.243542	4329.111336	1.966857	-0.015096	3.726461
237.559259	4340.151463	1.971862	-0.015158	3.730832
237.881734	4351.163282	1.976866	-0.015221	3.735187
238.084875	4362.184762	1.981871	-0.015262	3.739530
