Wed Nov 23 19:06:18 2022

Number of Points = 2200
Depth (nm)	Load (µN)	Time (s)	Depth (V)	Load (V)
-6.772531	0.721585	0.000000	0.022476	0.993634
0.000000	6.214907	0.005005	0.021204	1.005426
4.426384	15.774656	0.010009	0.020371	1.021698
7.018197	26.907578	0.015014	0.019882	1.038980
8.732423	38.244128	0.020019	0.019558	1.055810
9.979916	49.574365	0.025024	0.019321	1.072128
11.012444	60.766622	0.030028	0.019124	1.087907
12.135445	71.922493	0.035033	0.018911	1.103455
12.757619	83.163536	0.040038	0.018791	1.118656
13.642782	94.271778	0.045043	0.018623	1.133605
14.147072	105.458615	0.050047	0.018525	1.148281
14.836320	116.555918	0.055052	0.018393	1.162743
15.348489	127.697079	0.060057	0.018294	1.177001
15.824776	138.817833	0.065061	0.018202	1.191047
16.338031	149.923436	0.070066	0.018103	1.204926
16.869027	161.045790	0.075071	0.018001	1.218675
17.361624	172.114787	0.080076	0.017905	1.232190
17.927249	183.222331	0.085080	0.017797	1.245635
18.533683	194.290105	0.090085	0.017680	1.258907
19.066532	205.407222	0.095090	0.017577	1.272066
19.470959	216.520762	0.100094	0.017499	1.285032
20.163052	227.580235	0.105099	0.017366	1.297926
20.431109	238.753698	0.110104	0.017313	1.310647
20.995300	249.770218	0.115109	0.017204	1.323191
21.333191	260.851542	0.120113	0.017138	1.335598
21.894383	271.914538	0.125118	0.017030	1.347958
22.234523	283.014642	0.130123	0.016964	1.360160
22.597380	294.084145	0.135128	0.016893	1.372229
24.165376	304.762506	0.140132	0.016596	1.384240
44.086714	312.723863	0.145137	0.012856	1.400284
44.851056	326.776645	0.150142	0.012709	1.415259
45.437260	338.310241	0.155146	0.012596	1.427416
46.121675	349.386570	0.160151	0.012465	1.439039
46.968567	360.466944	0.165156	0.012303	1.450632
47.735676	371.531100	0.170161	0.012157	1.462088
48.563721	382.591031	0.175165	0.011999	1.473471
49.238893	393.638906	0.180170	0.011869	1.484701
49.976488	404.742666	0.185175	0.011728	1.495922
50.818013	415.738539	0.190180	0.011567	1.506991
51.615758	426.847776	0.195184	0.011415	1.518074
52.219773	437.906526	0.200189	0.011299	1.528960
53.099417	448.951616	0.205194	0.011131	1.539850
53.789024	460.013457	0.210198	0.010999	1.550614
54.552165	471.055249	0.215203	0.010853	1.561310
55.214079	482.132230	0.220208	0.010726	1.571932
56.049439	493.184843	0.225213	0.010567	1.582517
56.547580	504.243838	0.230217	0.010470	1.592926
57.580315	515.205424	0.235222	0.010274	1.603353
58.662486	526.287976	0.240227	0.010068	1.613838
59.485779	537.378328	0.245232	0.009911	1.624178
60.006377	548.440743	0.250236	0.009810	1.634331
60.661039	559.506840	0.255241	0.009685	1.644466
61.287476	570.526401	0.260246	0.009565	1.654489
61.713676	581.630446	0.265250	0.009482	1.664463
62.493693	592.580683	0.270255	0.009333	1.674352
63.410536	603.654862	0.275260	0.009158	1.684333
63.751863	614.754639	0.280265	0.009091	1.694101
64.844687	625.696716	0.285269	0.008883	1.703906
65.461783	636.818311	0.290274	0.008765	1.713664
66.850693	647.723665	0.295279	0.008502	1.723414
67.675795	658.866901	0.300283	0.008344	1.733142
68.229315	669.957093	0.305288	0.008237	1.742689
69.758703	680.823628	0.310293	0.007948	1.752286
70.938623	691.970895	0.315298	0.007724	1.761960
71.248901	703.096987	0.320302	0.007663	1.771310
72.019702	714.093737	0.325307	0.007515	1.780638
72.698890	725.124339	0.330312	0.007385	1.789918
73.766789	736.125970	0.335317	0.007182	1.799237
74.360741	747.230280	0.340321	0.007068	1.808456
75.126420	758.240111	0.345326	0.006921	1.817601
76.435741	769.188652	0.350331	0.006673	1.826803
77.466872	780.313978	0.355335	0.006477	1.836022
78.135954	791.361554	0.360340	0.006348	1.845032
79.274172	802.365631	0.365345	0.006132	1.854093
79.721624	813.471873	0.370350	0.006045	1.863000
80.684621	824.441206	0.375354	0.005862	1.871898
81.570335	835.510280	0.380359	0.005693	1.880810
82.407450	846.528814	0.385364	0.005533	1.889628
83.113212	857.602281	0.390369	0.005398	1.898411
83.650652	868.653271	0.395373	0.005295	1.907091
84.458804	879.655707	0.400378	0.005140	1.915767
85.165697	890.690393	0.405383	0.005005	1.924400
86.214989	901.675957	0.410387	0.004805	1.933048
87.264053	912.731462	0.415392	0.004606	1.941710
87.988841	923.773974	0.420397	0.004467	1.950238
88.842239	934.832323	0.425402	0.004304	1.958775
89.276021	945.890391	0.430406	0.004220	1.967165
90.335232	956.868783	0.435411	0.004018	1.975621
90.954463	967.938665	0.440416	0.003900	1.983995
91.961339	978.911566	0.445421	0.003708	1.992361
92.647871	990.013709	0.450425	0.003576	2.000706
93.463158	1001.019442	0.455430	0.003421	2.008978
94.457985	1012.015402	0.460435	0.003231	2.017253
95.071354	1023.127864	0.465439	0.003113	2.025483
95.664884	1034.135870	0.470444	0.002999	2.033600
96.534051	1045.163927	0.475449	0.002833	2.041766
97.217717	1056.204324	0.480454	0.002702	2.049863
97.851282	1067.252674	0.485458	0.002581	2.057921
98.570957	1078.241931	0.490463	0.002443	2.065926
99.562096	1089.264838	0.495468	0.002254	2.073990
100.071559	1100.346027	0.500472	0.002156	2.081947
100.802687	1111.366309	0.505477	0.002016	2.089884
101.517149	1122.365587	0.510482	0.001879	2.097772
102.421162	1133.397648	0.515487	0.001707	2.105698
102.992236	1144.433848	0.520491	0.001597	2.113518
103.899269	1155.451384	0.525496	0.001424	2.121375
104.527468	1166.507594	0.530501	0.001304	2.129164
105.360975	1177.518949	0.535506	0.001144	2.136941
105.894572	1188.573903	0.540510	0.001042	2.144650
106.810640	1199.570847	0.545515	0.000867	2.152381
107.395922	1210.618440	0.550520	0.000754	2.160041
108.320069	1221.622514	0.555524	0.000578	2.167723
108.922947	1232.693400	0.560529	0.000462	2.175348
109.789444	1243.668296	0.565534	0.000297	2.182942
110.329940	1254.753205	0.570539	0.000193	2.190510
111.129138	1265.741334	0.575543	0.000040	2.198045
111.584841	1276.823163	0.580548	-0.000048	2.205539
112.313058	1287.795754	0.585553	-0.000187	2.212995
112.828605	1298.852221	0.590558	-0.000287	2.220435
113.482381	1309.880085	0.595562	-0.000412	2.227862
114.134699	1320.889352	0.600567	-0.000537	2.235251
114.896938	1331.920270	0.605572	-0.000683	2.242653
115.221379	1342.978603	0.610576	-0.000747	2.249954
115.836729	1354.007875	0.615581	-0.000865	2.257275
116.392756	1365.008642	0.620586	-0.000972	2.264540
117.071766	1376.008418	0.625591	-0.001102	2.271808
117.543635	1387.081560	0.630595	-0.001193	2.279056
118.304565	1398.050248	0.635600	-0.001339	2.286275
118.951188	1409.115680	0.640605	-0.001463	2.293509
119.778512	1420.086211	0.645610	-0.001621	2.300697
120.203368	1431.191605	0.650614	-0.001703	2.307864
121.057679	1442.156354	0.655619	-0.001866	2.315009
121.633460	1453.218852	0.660624	-0.001977	2.322136
122.472168	1464.201703	0.665628	-0.002137	2.329245
123.255945	1475.253101	0.670633	-0.002287	2.336364
123.680200	1486.310681	0.675638	-0.002369	2.343390
124.208015	1497.290355	0.680643	-0.002471	2.350368
124.751058	1508.365137	0.685647	-0.002576	2.357387
125.228647	1519.358432	0.690652	-0.002668	2.364321
125.925885	1530.375970	0.695657	-0.002802	2.371295
126.473265	1541.400147	0.700661	-0.002907	2.378222
127.103032	1552.420767	0.705666	-0.003028	2.385143
127.739048	1563.459351	0.710671	-0.003150	2.392056
128.273227	1574.506488	0.715676	-0.003253	2.398933
128.594000	1585.526922	0.720680	-0.003316	2.405732
129.517633	1596.504001	0.725685	-0.003492	2.412605
129.856943	1607.568583	0.730690	-0.003558	2.419395
130.411994	1618.569984	0.735695	-0.003665	2.426171
130.971660	1629.614668	0.740699	-0.003773	2.432954
131.557384	1640.608807	0.745704	-0.003886	2.439694
132.401589	1651.600105	0.750709	-0.004047	2.446463
133.254555	1662.658084	0.755713	-0.004210	2.453256
133.591552	1673.705442	0.760718	-0.004276	2.459922
133.956718	1684.748634	0.765723	-0.004347	2.466573
134.222033	1695.773732	0.770728	-0.004399	2.473176
134.826855	1706.740738	0.775732	-0.004516	2.479792
135.239976	1717.791614	0.780737	-0.004596	2.486404
136.097415	1728.804340	0.785742	-0.004759	2.493060
136.454131	1739.844066	0.790747	-0.004829	2.499619
137.282223	1750.826346	0.795751	-0.004987	2.506216
137.791937	1761.885135	0.800756	-0.005086	2.512780
138.203224	1772.902586	0.805761	-0.005166	2.519284
138.756741	1783.925338	0.810765	-0.005272	2.525801
139.618673	1794.904758	0.815770	-0.005437	2.532334
140.095585	1805.972888	0.820775	-0.005529	2.538829
140.563171	1816.996705	0.825780	-0.005619	2.545280
141.151494	1828.005301	0.830784	-0.005732	2.551728
141.669713	1839.038784	0.835789	-0.005832	2.558161
141.915161	1850.082528	0.840794	-0.005881	2.564533
142.625372	1861.057819	0.845799	-0.006017	2.570936
143.026039	1872.181302	0.850803	-0.006095	2.577350
143.675080	1883.107851	0.855808	-0.006220	2.583682
143.977164	1894.153645	0.860813	-0.006279	2.590003
144.269315	1905.166503	0.865817	-0.006337	2.596287
145.140170	1916.156113	0.870822	-0.006503	2.602648
146.019584	1927.153302	0.875827	-0.006670	2.608999
146.605901	1938.241922	0.880832	-0.006783	2.615333
147.218497	1949.241050	0.885836	-0.006901	2.621605
147.393203	1960.289475	0.890841	-0.006936	2.627813
148.164176	1971.257550	0.895846	-0.007084	2.634066
148.553357	1982.342682	0.900850	-0.007159	2.640302
148.973956	1993.326842	0.905855	-0.007241	2.646473
149.307205	2004.396607	0.910860	-0.007306	2.652661
149.786462	2015.349787	0.915865	-0.007399	2.658796
150.340269	2026.391992	0.920869	-0.007506	2.664979
151.013980	2037.399222	0.925874	-0.007635	2.671149
151.345174	2048.445100	0.930879	-0.007700	2.677266
151.910636	2059.419631	0.935884	-0.007809	2.683371
152.247346	2070.476838	0.940888	-0.007874	2.689468
153.016480	2081.439484	0.945893	-0.008021	2.695573
153.358411	2092.522122	0.950898	-0.008088	2.701656
153.889177	2103.491063	0.955902	-0.008191	2.707696
154.534971	2114.537278	0.960907	-0.008315	2.713784
154.913034	2125.556294	0.965912	-0.008388	2.719798
155.311521	2136.593180	0.970917	-0.008466	2.725812
155.720268	2147.605214	0.975921	-0.008545	2.731800
156.566061	2158.579785	0.980926	-0.008707	2.737829
157.152925	2169.624118	0.985931	-0.008819	2.743839
157.582366	2180.669624	0.990936	-0.008903	2.749809
158.197720	2191.649167	0.995940	-0.009021	2.755762
158.631541	2202.717703	1.000945	-0.009105	2.761719
159.155238	2213.709527	1.005950	-0.009206	2.767637
159.707418	2224.729037	1.010954	-0.009312	2.773562
160.199318	2235.744883	1.015959	-0.009407	2.779462
160.768998	2246.768793	1.020964	-0.009517	2.785367
161.098792	2257.816700	1.025969	-0.009582	2.791232
161.457131	2268.822806	1.030973	-0.009652	2.797068
162.209667	2279.789387	1.035978	-0.009796	2.802935
162.651021	2290.872399	1.040983	-0.009881	2.808800
163.156934	2301.866207	1.045988	-0.009979	2.814616
163.629930	2312.900192	1.050992	-0.010070	2.820436
164.137680	2323.914890	1.055997	-0.010168	2.826239
164.629018	2334.940447	1.061002	-0.010263	2.832033
164.914044	2345.961784	1.066006	-0.010319	2.837780
165.328172	2356.973778	1.071011	-0.010400	2.843531
165.861447	2367.984516	1.076016	-0.010503	2.849289
166.177976	2379.024865	1.081021	-0.010565	2.855015
166.828741	2390.010325	1.086025	-0.010690	2.860755
167.219551	2401.045586	1.091030	-0.010766	2.866468
167.855830	2412.056553	1.096035	-0.010888	2.872195
168.279372	2423.095603	1.101039	-0.010970	2.877892
168.690494	2434.098224	1.106044	-0.011050	2.883557
168.972763	2445.150201	1.111049	-0.011106	2.889215
169.356882	2456.155983	1.116054	-0.011180	2.894855
170.008252	2467.154952	1.121058	-0.011305	2.900522
170.544136	2478.168218	1.126063	-0.011409	2.906167
170.912225	2489.233120	1.131068	-0.011480	2.911801
171.188938	2500.205539	1.136073	-0.011535	2.917363
171.892845	2511.217015	1.141077	-0.011670	2.923000
172.336146	2522.255175	1.146082	-0.011756	2.928599
173.003997	2533.280337	1.151087	-0.011884	2.934215
173.196025	2544.300645	1.156091	-0.011923	2.939746
173.584078	2555.312452	1.161096	-0.011998	2.945292
174.273907	2566.309745	1.166101	-0.012130	2.950865
174.668123	2577.354728	1.171106	-0.012207	2.956407
175.162677	2588.354526	1.176110	-0.012302	2.961931
175.520833	2599.410412	1.181115	-0.012372	2.967452
176.048572	2610.385981	1.186120	-0.012474	2.972948
176.629081	2621.418524	1.191125	-0.012586	2.978470
177.044817	2632.423465	1.196129	-0.012667	2.983944
177.555175	2643.464468	1.201134	-0.012765	2.989439
177.853387	2654.481241	1.206139	-0.012824	2.994880
178.144680	2665.531338	1.211143	-0.012881	3.000327
178.317090	2676.529429	1.216148	-0.012916	3.005721
178.699061	2687.550541	1.221153	-0.012991	3.011148
179.275128	2698.511840	1.226158	-0.013101	3.016564
179.827672	2709.568117	1.231162	-0.013208	3.022012
180.282997	2720.566428	1.236167	-0.013296	3.027408
180.939718	2731.608543	1.241172	-0.013422	3.032845
181.406097	2742.613607	1.246177	-0.013512	3.038227
181.961684	2753.628898	1.251181	-0.013619	3.043617
182.535405	2764.669309	1.256186	-0.013730	3.049012
183.047658	2775.657818	1.261191	-0.013828	3.054363
183.683182	2786.677004	1.266195	-0.013950	3.059737
183.908257	2797.748363	1.271200	-0.013995	3.065069
184.328459	2808.713198	1.276205	-0.014077	3.070367
184.824175	2819.758197	1.281210	-0.014173	3.075706
185.229713	2830.753883	1.286214	-0.014251	3.080998
185.665725	2841.790122	1.291219	-0.014336	3.086305
186.200387	2852.773801	1.296224	-0.014439	3.091592
186.652008	2863.831126	1.301228	-0.014527	3.096893
187.185175	2874.810425	1.306233	-0.014629	3.102159
187.648117	2885.864125	1.311238	-0.014719	3.107442
188.358338	2896.838957	1.316243	-0.014855	3.112712
189.022744	2907.893161	1.321247	-0.014982	3.118005
189.481902	2918.893591	1.326252	-0.015071	3.123234
189.712056	2929.967680	1.331257	-0.015117	3.128458
190.134953	2940.933765	1.336262	-0.015199	3.133649
190.704031	2951.946430	1.341266	-0.015309	3.138873
191.162592	2962.970290	1.346271	-0.015397	3.144078
191.648917	2974.014834	1.351276	-0.015491	3.149288
191.898589	2985.014428	1.356280	-0.015541	3.154437
192.181140	2996.054948	1.361285	-0.015597	3.159600
192.588289	3007.040998	1.366290	-0.015676	3.164746
193.141980	3018.055246	1.371295	-0.015782	3.169917
193.933993	3029.061155	1.376299	-0.015934	3.175107
194.397382	3040.110537	1.381304	-0.016023	3.180265
194.750502	3051.101862	1.386309	-0.016092	3.185372
195.294112	3062.146880	1.391314	-0.016197	3.190522
195.609640	3073.162201	1.396318	-0.016259	3.195619
196.041187	3084.163804	1.401323	-0.016343	3.200716
196.390603	3095.199020	1.406328	-0.016411	3.205811
196.770584	3106.210458	1.411332	-0.016485	3.210890
197.184676	3117.201072	1.416337	-0.016566	3.215956
197.642706	3128.237919	1.421342	-0.016654	3.221041
197.944482	3139.263580	1.426347	-0.016714	3.226092
198.272026	3150.284937	1.431351	-0.016778	3.231136
198.645245	3161.278968	1.436356	-0.016851	3.236167
198.857277	3172.320339	1.441361	-0.016893	3.241189
199.272117	3183.329690	1.446366	-0.016974	3.246216
199.706358	3194.338482	1.451370	-0.017058	3.251237
200.228974	3205.339358	1.456375	-0.017159	3.256258
200.457928	3216.407250	1.461380	-0.017204	3.261264
200.906064	3227.366919	1.466384	-0.017291	3.266241
201.278321	3238.440075	1.471389	-0.017364	3.271252
201.624278	3249.397082	1.476394	-0.017431	3.276200
202.046881	3260.458878	1.481399	-0.017513	3.281196
202.380469	3271.461134	1.486403	-0.017579	3.286148
202.903699	3282.469718	1.491408	-0.017680	3.291118
203.355863	3293.494647	1.496413	-0.017767	3.296079
203.869726	3304.494460	1.501417	-0.017866	3.301030
204.137486	3315.543232	1.506422	-0.017919	3.305963
204.433084	3326.557122	1.511427	-0.017978	3.310877
204.799141	3337.550717	1.516432	-0.018049	3.315784
205.354669	3348.576603	1.521436	-0.018156	3.320721
205.717188	3359.577013	1.526441	-0.018227	3.325615
206.387133	3370.605677	1.531446	-0.018355	3.330553
206.676444	3381.621046	1.536451	-0.018412	3.335430
207.182511	3392.642882	1.541455	-0.018510	3.340330
207.446848	3403.680429	1.546460	-0.018562	3.345199
207.876464	3414.677751	1.551465	-0.018645	3.350064
208.141669	3425.687710	1.556469	-0.018698	3.354907
208.670739	3436.722704	1.561474	-0.018800	3.359787
208.881225	3447.728941	1.566479	-0.018842	3.364607
209.318672	3458.780834	1.571484	-0.018927	3.369469
209.341210	3469.753280	1.576488	-0.018934	3.374238
209.799249	3480.778464	1.581493	-0.019023	3.379076
210.023072	3491.798880	1.586498	-0.019067	3.383877
210.519233	3502.807435	1.591503	-0.019163	3.388698
210.870405	3513.816941	1.596507	-0.019232	3.393496
211.383787	3524.836236	1.601512	-0.019331	3.398310
211.687407	3535.853218	1.606517	-0.019391	3.403092
212.154447	3546.874637	1.611521	-0.019481	3.407888
212.490139	3557.868543	1.616526	-0.019547	3.412649
213.085390	3568.914560	1.621531	-0.019661	3.417457
213.295569	3579.926736	1.626536	-0.019703	3.422199
213.818998	3590.942051	1.631540	-0.019804	3.426971
213.936823	3601.963397	1.636545	-0.019829	3.431692
214.543311	3612.965189	1.641550	-0.019945	3.436456
214.929274	3623.985094	1.646555	-0.020021	3.441194
215.319823	3635.001661	1.651559	-0.020097	3.445925
215.620608	3646.048939	1.656564	-0.020156	3.450652
215.963412	3657.031569	1.661569	-0.020223	3.455350
216.180553	3668.057424	1.666573	-0.020266	3.460046
216.539357	3679.100132	1.671578	-0.020336	3.464758
216.853675	3690.087596	1.676583	-0.020398	3.469435
217.264886	3701.098406	1.681588	-0.020478	3.474127
217.461660	3712.138035	1.686592	-0.020518	3.478800
217.712402	3723.154893	1.691597	-0.020567	3.483464
218.121170	3734.130878	1.696602	-0.020647	3.488122
218.378579	3745.177431	1.701606	-0.020698	3.492786
218.712178	3756.171963	1.706611	-0.020763	3.497430
219.271333	3767.192334	1.711616	-0.020871	3.502105
219.654477	3778.195908	1.716621	-0.020945	3.506747
220.289687	3789.222184	1.721625	-0.021067	3.511420
220.502129	3800.267730	1.726630	-0.021110	3.516047
221.113785	3811.264647	1.731635	-0.021227	3.520693
221.320395	3822.291840	1.736640	-0.021269	3.525300
221.695371	3833.309093	1.741644	-0.021342	3.529915
222.056659	3844.311661	1.746649	-0.021413	3.534516
222.591989	3855.326355	1.751654	-0.021516	3.539136
222.929809	3866.342805	1.756658	-0.021582	3.543729
223.387079	3877.374913	1.761663	-0.021670	3.548335
223.588404	3888.368809	1.766668	-0.021711	3.552891
224.034575	3899.389195	1.771673	-0.021797	3.557479
224.299356	3910.395545	1.776677	-0.021850	3.562035
224.700001	3921.439800	1.781682	-0.021928	3.566616
225.007821	3932.426070	1.786687	-0.021988	3.571157
225.490674	3943.466590	1.791692	-0.022081	3.575734
225.819182	3954.466849	1.796696	-0.022146	3.580271
226.150692	3965.487439	1.801701	-0.022211	3.584811
226.516114	3976.499461	1.806706	-0.022282	3.589345
226.804280	3987.525680	1.811710	-0.022339	3.593871
226.999653	3998.547843	1.816715	-0.022378	3.598380
227.396697	4009.562538	1.821720	-0.022455	3.602901
227.731034	4020.568889	1.826725	-0.022521	3.607407
228.150804	4031.580451	1.831729	-0.022602	3.611918
228.558295	4042.597855	1.836734	-0.022682	3.616425
228.840624	4053.604667	1.841739	-0.022737	3.620908
229.251789	4064.626018	1.846744	-0.022817	3.625405
229.529465	4075.651873	1.851748	-0.022872	3.629884
229.703268	4086.667915	1.856753	-0.022907	3.634343
230.161845	4097.704663	1.861758	-0.022996	3.638835
230.407795	4108.757188	1.866762	-0.023045	3.643304
230.803936	4119.766797	1.871767	-0.023122	3.647767
231.106932	4130.743893	1.876772	-0.023182	3.652202
231.413476	4141.791379	1.881777	-0.023242	3.656659
231.877238	4152.799593	1.886781	-0.023332	3.661112
232.286890	4163.824101	1.891786	-0.023411	3.665561
232.549448	4174.840667	1.896791	-0.023463	3.669985
233.022760	4185.832015	1.901795	-0.023555	3.674415
233.552549	4196.845028	1.906800	-0.023657	3.678855
234.015273	4207.900344	1.911805	-0.023746	3.683299
234.439346	4218.911873	1.916810	-0.023829	3.687717
234.816234	4229.913061	1.921814	-0.023902	3.692120
235.003751	4240.928954	1.926819	-0.023940	3.696504
235.408337	4251.922127	1.931824	-0.024019	3.700896
235.821994	4262.956391	1.936829	-0.024099	3.705300
236.285429	4273.965901	1.941833	-0.024189	3.709693
236.621174	4284.987928	1.946838	-0.024255	3.714074
236.984325	4296.007437	1.951843	-0.024325	3.718451
237.316814	4307.014834	1.956847	-0.024391	3.722815
237.830161	4318.056261	1.961852	-0.024490	3.727205
238.030029	4329.040874	1.966857	-0.024530	3.731537
238.408353	4340.047377	1.971862	-0.024604	3.735889
238.824796	4351.088342	1.976866	-0.024684	3.740254
