Wed Nov 23 18:47:16 2022

Number of Points = 2200
Depth (nm)	Load (µN)	Time (s)	Depth (V)	Load (V)
-1.436756	1.617663	0.000000	-0.005589	1.073564
0.000000	7.999866	0.005005	-0.005861	1.082972
1.491267	17.292585	0.010009	-0.006143	1.096228
2.755861	28.042554	0.015014	-0.006383	1.111140
3.974294	39.115017	0.020019	-0.006614	1.126252
5.516425	50.119538	0.025024	-0.006906	1.141228
7.401961	61.196813	0.030028	-0.007263	1.156262
8.322025	72.494968	0.035033	-0.007438	1.170934
9.517621	83.576221	0.040038	-0.007665	1.185281
10.413305	94.773883	0.045043	-0.007836	1.199463
10.814375	105.978647	0.050047	-0.007914	1.213268
13.533427	116.555600	0.055052	-0.008427	1.227181
15.488984	127.829700	0.060057	-0.008797	1.241430
16.932722	139.033283	0.065061	-0.009070	1.255215
18.104273	150.201113	0.070066	-0.009293	1.268694
19.006549	161.360522	0.075071	-0.009465	1.281907
20.286882	172.379113	0.080076	-0.009708	1.294982
21.232912	183.594306	0.085080	-0.009888	1.308009
22.604969	194.516983	0.090085	-0.010148	1.320755
23.685021	205.681324	0.095090	-0.010354	1.333527
24.647437	216.775240	0.100094	-0.010537	1.346053
25.609865	227.850697	0.105099	-0.010720	1.358444
26.552575	238.912350	0.110104	-0.010900	1.370700
27.482875	250.043205	0.115109	-0.011077	1.382915
28.644339	261.034190	0.120113	-0.011298	1.394963
29.793121	272.107873	0.125118	-0.011516	1.406989
30.805760	283.231752	0.130123	-0.011709	1.418913
31.659528	294.287917	0.135128	-0.011872	1.430609
32.816261	305.344330	0.140132	-0.012092	1.442322
33.893650	316.391561	0.145137	-0.012297	1.453901
34.768292	327.503623	0.150142	-0.012464	1.465379
35.844715	338.524596	0.155146	-0.012668	1.476750
36.696476	349.643456	0.160151	-0.012831	1.488050
37.572515	360.681710	0.165156	-0.012998	1.499194
38.547036	371.741344	0.170161	-0.013184	1.510310
39.390381	382.820668	0.175165	-0.013345	1.521318
40.288215	393.857225	0.180170	-0.013516	1.532225
41.479633	404.875824	0.185175	-0.013742	1.543136
42.178623	416.018147	0.190180	-0.013876	1.553921
43.011899	427.045057	0.195184	-0.014035	1.564568
43.941481	438.072246	0.200189	-0.014212	1.575175
45.078666	449.107810	0.205194	-0.014428	1.585787
45.910228	460.206190	0.210198	-0.014587	1.596285
46.574273	471.273500	0.215203	-0.014714	1.606631
47.537478	482.309347	0.220208	-0.014898	1.616979
48.273885	493.396796	0.225213	-0.015039	1.627234
49.363061	504.337621	0.230217	-0.015246	1.637406
50.278052	515.424585	0.235222	-0.015420	1.647589
51.068600	526.530286	0.240227	-0.015571	1.657686
51.532257	537.583307	0.245232	-0.015661	1.667574
52.346467	548.592756	0.250236	-0.015817	1.677474
53.123201	559.652464	0.255241	-0.015965	1.687348
53.916995	570.707484	0.260246	-0.016117	1.697164
54.537440	581.751870	0.265250	-0.016236	1.706863
55.484038	592.738932	0.270255	-0.016416	1.716555
56.229935	603.835617	0.275260	-0.016559	1.726226
56.989881	614.875475	0.280265	-0.016704	1.735798
57.920572	625.875343	0.285269	-0.016882	1.745335
58.751827	636.941075	0.290274	-0.017040	1.754845
59.441745	648.003744	0.295279	-0.017173	1.764260
60.169432	659.059982	0.300283	-0.017312	1.773629
60.889930	670.068540	0.305288	-0.017450	1.782909
61.664258	681.113562	0.310293	-0.017598	1.792184
62.205865	692.193478	0.315298	-0.017702	1.801374
63.046924	703.183157	0.320302	-0.017863	1.810529
63.761068	714.258319	0.325307	-0.018000	1.819670
64.329724	725.289683	0.330312	-0.018109	1.828690
65.151039	736.313021	0.335317	-0.018266	1.837729
65.575781	747.403289	0.340321	-0.018348	1.846666
66.639014	758.352879	0.345326	-0.018550	1.855626
67.481042	769.395319	0.350331	-0.018711	1.864554
68.190175	780.486088	0.355335	-0.018847	1.873440
68.558406	791.565388	0.360340	-0.018919	1.882183
69.113277	802.552744	0.365345	-0.019026	1.890865
69.976264	813.542629	0.370350	-0.019190	1.899591
70.573417	824.630795	0.375354	-0.019305	1.908281
71.122697	835.688002	0.380359	-0.019411	1.916896
71.734008	846.694854	0.385364	-0.019528	1.925449
72.337853	857.744916	0.390369	-0.019644	1.933996
72.822546	868.755209	0.395373	-0.019738	1.942443
73.732531	879.763407	0.400378	-0.019912	1.950962
74.348426	890.832734	0.405383	-0.020030	1.959414
75.158867	901.802194	0.410387	-0.020185	1.967805
76.200080	912.865033	0.415392	-0.020383	1.976288
76.757394	923.931690	0.420397	-0.020490	1.984614
77.408281	934.957263	0.425402	-0.020615	1.992899
78.108281	945.979043	0.430406	-0.020749	2.001158
78.956672	956.997412	0.435411	-0.020911	2.009418
79.494246	968.090340	0.440416	-0.021015	2.017621
79.653181	979.138879	0.445421	-0.021047	2.025664
80.153383	990.138430	0.450425	-0.021144	2.033724
81.145176	1001.087655	0.455430	-0.021332	2.041837
81.829850	1012.183900	0.460435	-0.021464	2.049947
82.396207	1023.214369	0.465439	-0.021573	2.057949
83.009923	1034.260371	0.470444	-0.021691	2.065943
83.768144	1045.247929	0.475449	-0.021836	2.073899
84.439470	1056.333019	0.480454	-0.021964	2.081872
85.067610	1067.323817	0.485458	-0.022085	2.089738
85.803252	1078.380755	0.490463	-0.022226	2.097646
86.497739	1089.388898	0.495468	-0.022359	2.105480
87.131143	1100.429510	0.500472	-0.022480	2.113294
87.392215	1111.487942	0.505477	-0.022532	2.121003
88.065720	1122.479015	0.510482	-0.022661	2.128734
88.763961	1133.509057	0.515487	-0.022795	2.136469
89.413969	1144.545752	0.520491	-0.022920	2.144169
89.985650	1155.579664	0.525496	-0.023030	2.151822
90.572024	1166.610485	0.530501	-0.023142	2.159448
91.253784	1177.600589	0.535506	-0.023273	2.167042
91.924230	1188.702942	0.540510	-0.023402	2.174682
92.490531	1199.667351	0.545515	-0.023510	2.182179
93.052393	1210.724982	0.550520	-0.023619	2.189711
93.575288	1221.750958	0.555524	-0.023719	2.197188
93.993849	1232.801905	0.560529	-0.023801	2.204632
94.730076	1243.769886	0.565534	-0.023942	2.212067
95.573191	1254.787213	0.570539	-0.024103	2.219532
96.301610	1265.841275	0.575543	-0.024242	2.226972
96.919110	1276.885741	0.580548	-0.024361	2.234355
97.547312	1287.888680	0.585553	-0.024481	2.241689
98.270057	1298.927992	0.590558	-0.024620	2.249044
98.732840	1309.978144	0.595562	-0.024709	2.256324
99.206845	1321.015644	0.600567	-0.024801	2.263576
99.739218	1332.000572	0.605572	-0.024903	2.270782
100.340526	1343.022810	0.610576	-0.025019	2.278005
100.887318	1354.073884	0.615581	-0.025124	2.285211
101.434888	1365.077617	0.620586	-0.025230	2.292364
102.058711	1376.118698	0.625591	-0.025350	2.299535
102.404568	1387.142151	0.630595	-0.025417	2.306614
103.159874	1398.161602	0.635600	-0.025562	2.313754
103.708694	1409.193099	0.640605	-0.025667	2.320836
104.270434	1420.196054	0.645610	-0.025775	2.327881
104.922848	1431.260959	0.650614	-0.025901	2.334963
105.421638	1442.251546	0.655619	-0.025997	2.341944
105.927581	1453.288897	0.660624	-0.026095	2.348936
106.747897	1464.285843	0.665628	-0.026251	2.355945
107.085214	1475.358794	0.670633	-0.026317	2.362882
107.775018	1486.350435	0.675638	-0.026449	2.369821
108.127613	1497.409320	0.680643	-0.026518	2.376711
108.642792	1508.411913	0.685647	-0.026618	2.383580
109.151083	1519.433254	0.690652	-0.026716	2.390439
109.588078	1530.472660	0.695657	-0.026801	2.397275
110.125995	1541.491835	0.700661	-0.026904	2.404099
110.724586	1552.504441	0.705666	-0.027019	2.410912
111.481386	1563.505437	0.710671	-0.027164	2.417730
112.126103	1574.542037	0.715676	-0.027288	2.424528
112.516051	1585.595257	0.720680	-0.027364	2.431266
113.015382	1596.599706	0.725685	-0.027460	2.437977
113.402091	1607.644692	0.730690	-0.027535	2.444673
114.047169	1618.635051	0.735695	-0.027659	2.451367
114.637569	1629.668505	0.740699	-0.027773	2.458059
115.078481	1640.684907	0.745704	-0.027858	2.464692
115.492942	1651.730251	0.750709	-0.027939	2.471320
116.087184	1662.728800	0.755713	-0.028053	2.477937
116.607726	1673.764907	0.760718	-0.028153	2.484544
116.927692	1684.805999	0.765723	-0.028216	2.491098
117.427310	1695.828942	0.770728	-0.028312	2.497659
117.986158	1706.826566	0.775732	-0.028420	2.504198
118.671690	1717.824990	0.780737	-0.028551	2.510744
119.342662	1728.863199	0.785742	-0.028680	2.517294
119.803811	1739.901288	0.790747	-0.028769	2.523787
120.222156	1750.928850	0.795751	-0.028851	2.530249
120.692864	1761.942568	0.800756	-0.028942	2.536696
121.305416	1772.954923	0.805761	-0.029059	2.543153
121.792090	1783.976335	0.810765	-0.029153	2.549574
122.294638	1795.005560	0.815770	-0.029250	2.555987
122.657867	1806.064029	0.820775	-0.029321	2.562375
123.036467	1817.048071	0.825780	-0.029395	2.568707
123.545231	1828.134702	0.830784	-0.029493	2.575105
123.783297	1839.133241	0.835789	-0.029541	2.581388
124.182866	1850.106264	0.840794	-0.029618	2.587671
124.900147	1861.128954	0.845799	-0.029756	2.594024
125.201894	1872.166496	0.850803	-0.029815	2.600294
125.859351	1883.172351	0.855808	-0.029941	2.606596
126.073712	1894.246737	0.860813	-0.029984	2.612841
126.520637	1905.188652	0.865817	-0.030071	2.619039
127.090400	1916.237807	0.870822	-0.030180	2.625303
127.429182	1927.293411	0.875827	-0.030247	2.631515
127.956778	1938.273780	0.880832	-0.030348	2.637704
128.492553	1949.300900	0.885836	-0.030451	2.643906
128.989231	1960.326051	0.890841	-0.030547	2.650084
129.378329	1971.373504	0.895846	-0.030623	2.656242
129.743043	1982.380402	0.900850	-0.030694	2.662359
130.388151	1993.357209	0.905855	-0.030818	2.668494
130.776985	2004.427061	0.910860	-0.030894	2.674622
131.397926	2015.415567	0.915865	-0.031013	2.680730
131.774426	2026.455075	0.920869	-0.031086	2.686811
132.133224	2037.502684	0.925874	-0.031156	2.692879
132.648432	2048.453698	0.930879	-0.031256	2.698907
133.113055	2059.478740	0.935884	-0.031346	2.704954
133.835690	2070.483043	0.940888	-0.031484	2.711019
134.341800	2081.541080	0.945893	-0.031582	2.717063
134.492605	2092.579782	0.950898	-0.031613	2.723023
135.138412	2103.549042	0.955902	-0.031737	2.729016
135.336172	2114.624964	0.960907	-0.031777	2.734977
135.740931	2125.594820	0.965912	-0.031855	2.740904
136.267274	2136.648178	0.970917	-0.031957	2.746882
136.572093	2147.662242	0.975921	-0.032017	2.752790
136.867202	2158.667461	0.980926	-0.032075	2.758678
137.313744	2169.692319	0.985931	-0.032161	2.764589
137.477454	2180.743308	0.990936	-0.032195	2.770455
137.799582	2191.741817	0.995940	-0.032258	2.776306
138.180072	2202.742176	1.000945	-0.032332	2.782156
138.685118	2213.759511	1.005950	-0.032429	2.788023
139.140901	2224.805274	1.010954	-0.032518	2.793884
139.467918	2235.812605	1.015959	-0.032582	2.799691
139.949942	2246.822006	1.020964	-0.032675	2.805513
140.438486	2257.854648	1.025969	-0.032769	2.811335
140.638178	2268.893848	1.030973	-0.032810	2.817103
141.102129	2279.866825	1.035978	-0.032899	2.822866
141.561500	2290.902869	1.040983	-0.032988	2.828650
141.857627	2301.933853	1.045988	-0.033047	2.834393
142.186519	2312.948337	1.050992	-0.033111	2.840120
142.670757	2323.953921	1.055997	-0.033205	2.845857
143.031227	2335.024724	1.061002	-0.033275	2.851595
143.215916	2346.007059	1.066006	-0.033312	2.857249
143.442317	2357.039497	1.071011	-0.033358	2.862924
143.739996	2368.037263	1.076016	-0.033416	2.868581
144.189540	2379.053407	1.081021	-0.033503	2.874260
144.691559	2390.079458	1.086025	-0.033600	2.879941
144.967746	2401.110239	1.091030	-0.033655	2.885578
145.444868	2412.120500	1.096035	-0.033747	2.891224
145.774151	2423.154176	1.101039	-0.033812	2.896848
146.209873	2434.143664	1.106044	-0.033896	2.902456
146.478854	2445.188469	1.111049	-0.033949	2.908055
146.793519	2456.188661	1.116054	-0.034011	2.913627
147.306462	2467.200942	1.121058	-0.034110	2.919225
147.823003	2478.225745	1.126063	-0.034210	2.924819
148.343934	2489.242132	1.131068	-0.034310	2.930399
148.621912	2500.275619	1.136073	-0.034365	2.935939
148.780387	2511.314434	1.141077	-0.034397	2.941454
149.236875	2522.288732	1.146082	-0.034486	2.946971
149.233773	2533.359169	1.151087	-0.034488	2.952457
149.530658	2544.338463	1.156091	-0.034546	2.957932
149.786053	2555.374418	1.161096	-0.034597	2.963418
150.203044	2566.374009	1.166101	-0.034678	2.968901
150.755410	2577.387819	1.171106	-0.034784	2.974400
151.230160	2588.402788	1.176110	-0.034876	2.979878
151.427223	2599.445145	1.181115	-0.034916	2.985319
151.904457	2610.458602	1.186120	-0.035008	2.990776
152.102820	2621.480652	1.191125	-0.035048	2.996187
152.620953	2632.480555	1.196129	-0.035148	3.001624
152.886739	2643.513205	1.201134	-0.035201	3.007030
153.391958	2654.508305	1.206139	-0.035298	3.012443
153.467374	2665.564305	1.211143	-0.035315	3.017813
153.802640	2676.546747	1.216148	-0.035381	3.023176
154.286043	2687.594009	1.221153	-0.035474	3.028582
154.509741	2698.595967	1.226158	-0.035519	3.033918
154.751962	2709.627596	1.231162	-0.035567	3.039263
155.222825	2720.622386	1.236167	-0.035658	3.044613
155.500396	2731.679028	1.241172	-0.035713	3.049955
155.889004	2742.664202	1.246177	-0.035789	3.055270
156.029548	2753.716596	1.251181	-0.035818	3.060572
156.315738	2764.693273	1.256186	-0.035874	3.065849
156.878896	2775.714513	1.261191	-0.035982	3.071178
157.266803	2786.728645	1.266195	-0.036058	3.076469
157.728777	2797.742181	1.271200	-0.036147	3.081761
158.022107	2808.804654	1.276205	-0.036205	3.087043
158.276377	2819.786965	1.281210	-0.036256	3.092273
158.666508	2830.800265	1.286214	-0.036332	3.097528
158.815433	2841.854865	1.291219	-0.036362	3.102760
159.268492	2852.847192	1.296224	-0.036450	3.107995
159.598329	2863.884884	1.301228	-0.036515	3.113226
159.769349	2874.882994	1.306233	-0.036549	3.118408
159.975557	2885.909918	1.311238	-0.036591	3.123599
160.424652	2896.911434	1.316243	-0.036678	3.128803
160.812170	2907.924381	1.321247	-0.036753	3.133995
161.433037	2918.959326	1.326252	-0.036872	3.139221
161.525873	2929.974567	1.331257	-0.036893	3.144357
161.841965	2941.006487	1.336262	-0.036955	3.149522
161.996369	2952.007083	1.341266	-0.036986	3.154642
162.555175	2962.997346	1.346271	-0.037094	3.159804
162.977858	2974.047259	1.351276	-0.037176	3.164967
163.200488	2985.080526	1.356280	-0.037220	3.170086
163.350074	2996.067662	1.361285	-0.037251	3.175166
163.754183	3007.097003	1.366290	-0.037330	3.180292
164.074992	3018.090510	1.371295	-0.037393	3.185381
164.435835	3029.144844	1.376299	-0.037463	3.190496
164.678553	3040.134811	1.381304	-0.037511	3.195557
165.065073	3051.155475	1.386309	-0.037587	3.200643
165.182642	3062.202786	1.391314	-0.037612	3.205697
165.485033	3073.205945	1.396318	-0.037671	3.210748
165.719509	3084.196213	1.401323	-0.037718	3.215776
166.340883	3095.211258	1.406328	-0.037837	3.220858
166.920607	3106.218445	1.411332	-0.037949	3.225923
167.481041	3117.255304	1.416337	-0.038056	3.230991
167.494498	3128.297448	1.421342	-0.038062	3.235981
168.052835	3139.268486	1.426347	-0.038169	3.241003
168.382071	3150.308380	1.431351	-0.038234	3.246018
168.839104	3161.342892	1.436356	-0.038322	3.251040
168.948205	3172.354858	1.441361	-0.038345	3.255998
169.407275	3183.353140	1.446366	-0.038434	3.260988
169.586868	3194.385217	1.451370	-0.038471	3.265950
170.067878	3205.373926	1.456375	-0.038564	3.270923
170.285092	3216.423700	1.461380	-0.038607	3.275882
170.578010	3227.443592	1.466384	-0.038665	3.280830
170.674915	3238.468887	1.471389	-0.038686	3.285747
170.782667	3249.498568	1.476394	-0.038709	3.290661
171.039195	3260.475045	1.481399	-0.038760	3.295563
171.629118	3271.465755	1.486403	-0.038873	3.300505
172.105627	3282.507151	1.491408	-0.038965	3.305448
172.533476	3293.532662	1.496413	-0.039048	3.310371
172.700802	3304.552480	1.501417	-0.039082	3.315251
173.159661	3315.552290	1.506422	-0.039171	3.320151
173.702101	3326.582122	1.511427	-0.039276	3.325067
174.230384	3337.593676	1.516432	-0.039377	3.329967
174.353121	3348.615271	1.521436	-0.039403	3.334813
174.621014	3359.647067	1.526441	-0.039456	3.339675
174.792020	3370.656016	1.531446	-0.039491	3.344507
174.946861	3381.679880	1.536451	-0.039523	3.349337
175.084554	3392.696672	1.541455	-0.039551	3.354155
175.453359	3403.706173	1.546460	-0.039623	3.358991
175.667522	3414.713458	1.551465	-0.039666	3.363800
175.845073	3425.765688	1.556469	-0.039702	3.368617
175.867584	3436.733838	1.561474	-0.039709	3.373373
176.259039	3447.757978	1.566479	-0.039785	3.378190
176.650101	3458.765082	1.571484	-0.039861	3.382993
177.215806	3469.787251	1.576488	-0.039970	3.387816
177.382146	3480.805068	1.581493	-0.040004	3.392583
177.661852	3491.838913	1.586498	-0.040059	3.397363
178.074491	3502.826850	1.591503	-0.040140	3.402133
178.518447	3513.851030	1.596507	-0.040226	3.406915
178.805566	3524.872699	1.601512	-0.040282	3.411671
179.232936	3535.887179	1.606517	-0.040365	3.416434
179.386394	3546.925346	1.611521	-0.040397	3.421167
179.473515	3557.937266	1.616526	-0.040416	3.425875
179.777574	3568.936681	1.621531	-0.040476	3.430597
180.197681	3579.948849	1.626536	-0.040557	3.435331
180.395629	3590.990135	1.631540	-0.040597	3.440045
180.773595	3602.001533	1.636545	-0.040671	3.444761
180.860182	3613.024584	1.641550	-0.040690	3.449441
181.141392	3624.022423	1.646555	-0.040745	3.454127
181.519709	3635.053873	1.651559	-0.040819	3.458832
181.875824	3646.035719	1.656564	-0.040888	3.463507
182.146744	3657.088735	1.661569	-0.040942	3.468195
182.441977	3668.078286	1.666573	-0.041000	3.472854
182.641772	3679.118665	1.671578	-0.041040	3.477516
182.913453	3690.116424	1.676583	-0.041094	3.482163
183.156506	3701.157822	1.681588	-0.041142	3.486818
183.511982	3712.132018	1.686592	-0.041212	3.491451
183.494476	3723.213849	1.691597	-0.041211	3.496081
183.661508	3734.170285	1.696602	-0.041245	3.500674
183.845572	3745.213072	1.701606	-0.041283	3.505298
184.133348	3756.209407	1.706611	-0.041339	3.509909
184.401928	3767.232445	1.711616	-0.041392	3.514522
184.949959	3778.241071	1.716621	-0.041498	3.519155
185.146131	3789.288477	1.721625	-0.041537	3.523758
185.544869	3800.310019	1.726630	-0.041615	3.528367
185.619775	3811.300203	1.731635	-0.041632	3.532921
186.096408	3822.295967	1.736640	-0.041724	3.537516
186.430562	3833.303259	1.741644	-0.041789	3.542093
186.995657	3844.343995	1.746649	-0.041898	3.546705
187.080291	3855.369531	1.751654	-0.041917	3.551250
187.594473	3866.359125	1.756658	-0.042016	3.555823
187.692571	3877.405855	1.761663	-0.042037	3.560367
187.832256	3888.419803	1.766668	-0.042066	3.564896
188.038342	3899.430849	1.771673	-0.042107	3.569426
188.469130	3910.435626	1.776677	-0.042191	3.573972
188.738846	3921.474950	1.781682	-0.042244	3.578508
188.937770	3932.476199	1.786687	-0.042284	3.583016
189.449082	3943.473287	1.791692	-0.042383	3.587550
189.626111	3954.517835	1.796696	-0.042419	3.592061
189.896125	3965.508591	1.801701	-0.042472	3.596555
190.189789	3976.544776	1.806706	-0.042530	3.601064
190.419042	3987.552819	1.811710	-0.042576	3.605549
190.734432	3998.575061	1.816715	-0.042638	3.610044
191.198081	4009.560401	1.821720	-0.042728	3.614534
191.602719	4020.582421	1.826725	-0.042806	3.619026
191.783407	4031.632070	1.831729	-0.042843	3.623500
191.928636	4042.660696	1.836734	-0.042873	3.627957
192.212963	4053.640639	1.841739	-0.042929	3.632403
192.316848	4064.675681	1.846744	-0.042951	3.636846
192.649551	4075.659329	1.851748	-0.043016	3.641288
193.079763	4086.687146	1.856753	-0.043100	3.645752
193.043227	4097.749371	1.861758	-0.043096	3.650175
193.332814	4108.761966	1.866762	-0.043153	3.654608
193.529373	4119.782087	1.871767	-0.043192	3.659028
193.893458	4130.821931	1.876772	-0.043263	3.663468
194.192477	4141.818800	1.881777	-0.043322	3.667879
194.472637	4152.843531	1.886781	-0.043377	3.672293
194.719695	4163.834601	1.891786	-0.043427	3.676685
195.043535	4174.875672	1.896791	-0.043490	3.681100
195.188583	4185.903606	1.901795	-0.043520	3.685486
195.573494	4196.883117	1.906800	-0.043595	3.689872
195.689284	4207.919983	1.911805	-0.043619	3.694248
195.937451	4218.917440	1.916810	-0.043669	3.698617
195.941334	4229.964615	1.921814	-0.043672	3.702975
196.333017	4240.974188	1.926819	-0.043748	3.707352
196.664745	4251.947558	1.931824	-0.043813	3.711704
197.058361	4262.989613	1.936829	-0.043890	3.716085
197.364447	4273.989688	1.941833	-0.043950	3.720434
197.813952	4285.015266	1.946838	-0.044037	3.724803
198.005292	4296.030643	1.951843	-0.044076	3.729137
198.318318	4307.050808	1.956847	-0.044137	3.733479
198.664997	4318.062626	1.961852	-0.044205	3.737817
198.912066	4329.104341	1.966857	-0.044254	3.742151
