Wed Nov 23 19:06:18 2022

Number of Points = 2200
Depth (nm)	Load (µN)	Time (s)	Depth (V)	Load (V)
-6.385749	0.564679	0.000000	-0.034293	1.146532
0.000000	7.029151	0.005005	-0.035492	1.157711
5.859424	16.653950	0.010009	-0.036594	1.172483
9.730009	27.891554	0.015014	-0.037323	1.188154
12.182529	39.349093	0.020019	-0.037786	1.203255
13.487654	50.711229	0.025024	-0.038034	1.217548
14.549722	61.923200	0.030028	-0.038236	1.231390
15.357002	73.086180	0.035033	-0.038390	1.244911
16.789803	84.032509	0.040038	-0.038662	1.258300
19.359719	94.874693	0.045043	-0.039147	1.271904
21.177376	106.171808	0.050047	-0.039491	1.285567
22.211950	117.404583	0.055052	-0.039688	1.298693
23.355271	128.518193	0.060057	-0.039905	1.311597
24.394787	139.581359	0.065061	-0.040103	1.324278
25.226673	150.715822	0.070066	-0.040262	1.336834
26.003862	161.789879	0.075071	-0.040410	1.349185
27.112352	172.820612	0.080076	-0.040621	1.361506
27.884002	183.945632	0.085080	-0.040768	1.373687
28.712456	195.030360	0.090085	-0.040927	1.385739
29.558439	206.090815	0.095090	-0.041088	1.397667
30.402914	217.141423	0.100094	-0.041249	1.409484
31.196037	228.236970	0.105099	-0.041401	1.421229
31.879938	239.328273	0.110104	-0.041532	1.432833
32.840491	250.329444	0.115109	-0.041715	1.444353
33.655886	261.430972	0.120113	-0.041871	1.455829
34.313934	272.521134	0.125118	-0.041997	1.467147
35.339941	283.517965	0.130123	-0.042192	1.478417
36.153405	294.605414	0.135128	-0.042347	1.489615
36.796992	305.720103	0.140132	-0.042471	1.500696
37.501243	316.746862	0.145137	-0.042606	1.511632
38.205563	327.819937	0.150142	-0.042741	1.522533
38.793033	338.887037	0.155146	-0.042854	1.533311
39.744664	349.882286	0.160151	-0.043035	1.544068
40.302172	361.018470	0.165156	-0.043142	1.554751
41.179547	371.999244	0.170161	-0.043310	1.565321
42.156180	383.039961	0.175165	-0.043496	1.575909
43.058010	394.105874	0.180170	-0.043668	1.586425
43.865259	405.175087	0.185175	-0.043822	1.596843
44.467221	416.252761	0.190180	-0.043938	1.607134
45.281621	427.280619	0.195184	-0.044093	1.617382
46.053014	438.353744	0.200189	-0.044241	1.627593
46.453318	449.449461	0.205194	-0.044319	1.637642
46.848419	460.488354	0.210198	-0.044395	1.647577
48.754894	471.195833	0.215203	-0.044756	1.657634
50.675730	482.407571	0.220208	-0.045119	1.668074
51.253646	493.582661	0.225213	-0.045230	1.678003
53.186702	504.398928	0.230217	-0.045596	1.687978
54.201653	515.637735	0.235222	-0.045789	1.697977
55.732666	526.569011	0.240227	-0.046079	1.707810
56.849837	537.670660	0.245232	-0.046291	1.717607
58.009485	548.734317	0.250236	-0.046511	1.727328
59.208455	559.768538	0.255241	-0.046739	1.736981
60.137106	570.841147	0.260246	-0.046916	1.746533
61.081466	581.889015	0.265250	-0.047096	1.756016
62.182535	592.899173	0.270255	-0.047305	1.765462
62.854666	604.015025	0.275260	-0.047434	1.774820
63.927027	614.991734	0.280265	-0.047638	1.784131
64.897120	626.042878	0.285269	-0.047823	1.793423
65.601956	637.138410	0.290274	-0.047958	1.802628
66.601272	648.109582	0.295279	-0.048148	1.811769
67.824898	659.134884	0.300283	-0.048381	1.820970
68.955247	670.179697	0.305288	-0.048595	1.830113
69.938808	681.249166	0.310293	-0.048783	1.839189
70.193712	692.382368	0.315298	-0.048833	1.848070
71.115776	703.324864	0.320302	-0.049009	1.856941
72.235676	714.347699	0.325307	-0.049222	1.865887
73.060761	725.415000	0.330312	-0.049379	1.874743
73.832227	736.452835	0.335317	-0.049527	1.883521
74.856128	747.449261	0.340321	-0.049722	1.892293
75.846009	758.517575	0.345326	-0.049910	1.901070
76.807045	769.536694	0.350331	-0.050093	1.909762
77.553421	780.595378	0.355335	-0.050236	1.918387
78.450313	791.621983	0.360340	-0.050407	1.926988
79.028912	802.713335	0.365345	-0.050518	1.935516
80.020473	813.650615	0.370350	-0.050707	1.943999
80.910961	824.721858	0.375354	-0.050877	1.952518
81.659096	835.768313	0.380359	-0.051020	1.960944
82.361223	846.809165	0.385364	-0.051155	1.969319
82.971873	857.883282	0.390369	-0.051272	1.977658
83.820398	868.839301	0.395373	-0.051434	1.985936
84.709373	879.895900	0.400378	-0.051603	1.994263
85.518498	890.921506	0.405383	-0.051758	2.002513
86.302213	901.975867	0.410387	-0.051908	2.010743
86.897501	913.008507	0.415392	-0.052022	2.018876
87.926109	924.004776	0.420397	-0.052218	2.027057
88.513512	935.083358	0.425402	-0.052331	2.035156
89.182080	946.101374	0.430406	-0.052459	2.043199
89.771587	957.142019	0.435411	-0.052572	2.051207
90.629963	968.138559	0.440416	-0.052736	2.059217
91.291475	979.204611	0.445421	-0.052863	2.067198
92.018562	990.223696	0.450425	-0.053002	2.075130
92.625310	1001.240442	0.455430	-0.053119	2.083002
93.393371	1012.277512	0.460435	-0.053266	2.090896
94.221356	1023.314222	0.465439	-0.053424	2.098774
94.963537	1034.341536	0.470444	-0.053566	2.106596
95.611325	1045.385158	0.475449	-0.053690	2.114377
96.318776	1056.410207	0.480454	-0.053826	2.122131
97.014482	1067.430952	0.485458	-0.053959	2.129850
97.730395	1078.485442	0.490463	-0.054096	2.137570
98.451628	1089.468935	0.495468	-0.054234	2.145214
99.488365	1100.490083	0.500472	-0.054431	2.152928
100.157092	1111.565404	0.505477	-0.054559	2.160567
100.731520	1122.586718	0.510482	-0.054670	2.168121
101.182208	1133.661344	0.515487	-0.054757	2.175657
101.799794	1144.641495	0.520491	-0.054876	2.183141
102.374350	1155.664611	0.525496	-0.054986	2.190617
103.252295	1166.666596	0.530501	-0.055154	2.198122
103.851317	1177.746334	0.535506	-0.055269	2.205591
104.359572	1188.755621	0.540510	-0.055367	2.212967
105.148421	1199.760579	0.545515	-0.055518	2.220378
105.743302	1210.806758	0.550520	-0.055632	2.227748
106.404652	1221.857010	0.555524	-0.055759	2.235111
106.901407	1232.853264	0.560529	-0.055855	2.242379
107.809795	1243.855443	0.565534	-0.056028	2.249716
108.375459	1254.938187	0.570539	-0.056137	2.257007
108.684312	1265.968968	0.575543	-0.056198	2.264185
109.248107	1276.971069	0.580548	-0.056306	2.271377
109.581233	1288.007862	0.585553	-0.056371	2.278519
110.465575	1298.989355	0.590558	-0.056540	2.285720
111.107420	1310.025591	0.595562	-0.056663	2.292882
111.796592	1321.073026	0.600567	-0.056795	2.300039
112.320593	1332.068585	0.605572	-0.056896	2.307105
113.529562	1343.070201	0.610576	-0.057126	2.314297
114.042152	1354.143480	0.615581	-0.057225	2.321366
114.903632	1365.132896	0.620586	-0.057389	2.328433
115.376576	1376.225797	0.625591	-0.057481	2.335463
115.852786	1387.207524	0.630595	-0.057573	2.342403
116.583661	1398.231963	0.635600	-0.057713	2.349401
117.285711	1409.252510	0.640605	-0.057847	2.356370
117.875558	1420.291187	0.645610	-0.057961	2.363306
118.611528	1431.296482	0.650614	-0.058101	2.370231
118.947616	1442.355142	0.655619	-0.058167	2.377088
119.562320	1453.391531	0.660624	-0.058285	2.383967
119.985973	1464.385826	0.665628	-0.058367	2.390762
120.563483	1475.415928	0.670633	-0.058479	2.397590
121.069883	1486.451754	0.675638	-0.058576	2.404388
121.665747	1497.461813	0.680643	-0.058691	2.411168
122.223941	1508.472351	0.685647	-0.058798	2.417923
122.566433	1519.543378	0.690652	-0.058865	2.424652
123.017411	1530.536972	0.695657	-0.058953	2.431337
123.650769	1541.542344	0.700661	-0.059074	2.438047
124.215622	1552.569941	0.705666	-0.059183	2.444737
124.764815	1563.604028	0.710671	-0.059289	2.451410
125.257878	1574.620416	0.715676	-0.059384	2.458044
125.801902	1585.651745	0.720680	-0.059489	2.464678
126.410586	1596.659977	0.725685	-0.059606	2.471293
127.038469	1607.696869	0.730690	-0.059726	2.477911
127.571244	1618.702725	0.735695	-0.059829	2.484474
128.455276	1629.702061	0.740699	-0.059998	2.491083
128.875329	1640.784767	0.745704	-0.060079	2.497635
129.546067	1651.774587	0.750709	-0.060208	2.504162
129.962590	1662.813443	0.755713	-0.060289	2.510654
130.600858	1673.822113	0.760718	-0.060411	2.517152
130.816856	1684.886621	0.765723	-0.060454	2.523587
131.362467	1695.858013	0.770728	-0.060559	2.530013
131.743360	1706.907440	0.775732	-0.060634	2.536437
132.580681	1717.882918	0.780737	-0.060793	2.542887
133.151898	1728.933571	0.785742	-0.060903	2.549314
133.675500	1739.975657	0.790747	-0.061004	2.555711
134.038972	1750.987265	0.795751	-0.061075	2.562045
134.695895	1762.004454	0.800756	-0.061201	2.568420
135.153306	1773.067906	0.805761	-0.061290	2.574769
135.598710	1784.068544	0.810765	-0.061376	2.581065
135.904968	1795.095775	0.815770	-0.061436	2.587335
136.653294	1806.075898	0.820775	-0.061579	2.593643
136.925734	1817.119544	0.825780	-0.061633	2.599885
137.461347	1828.121633	0.830784	-0.061737	2.606137
137.949563	1839.166566	0.835789	-0.061831	2.612388
138.713821	1850.149984	0.840794	-0.061977	2.618640
139.055418	1861.190757	0.845799	-0.062044	2.624833
139.665060	1872.220924	0.850803	-0.062161	2.631053
140.049780	1883.246971	0.855808	-0.062236	2.637216
140.582281	1894.262830	0.860813	-0.062339	2.643385
141.044081	1905.270506	0.865817	-0.062428	2.649523
141.519536	1916.312515	0.870822	-0.062520	2.655668
142.003362	1927.315017	0.875827	-0.062613	2.661778
142.575110	1938.337324	0.880832	-0.062723	2.667900
142.922610	1949.376989	0.885836	-0.062791	2.673978
143.443185	1960.367967	0.890841	-0.062892	2.680046
144.285255	1971.369934	0.895846	-0.063052	2.686161
144.819424	1982.441576	0.900850	-0.063155	2.692247
145.190365	1993.428450	0.905855	-0.063228	2.698246
145.650344	2004.475985	0.910860	-0.063317	2.704279
146.035373	2015.484048	0.915865	-0.063392	2.710264
146.636469	2026.508981	0.920869	-0.063507	2.716282
147.150857	2037.520421	0.925874	-0.063607	2.722264
147.736980	2048.524864	0.930879	-0.063719	2.728242
148.324256	2059.541516	0.935884	-0.063832	2.734212
148.617791	2070.576917	0.940888	-0.063890	2.740131
149.192392	2081.565048	0.945893	-0.064001	2.746059
149.448691	2092.645933	0.950898	-0.064051	2.751969
149.661850	2103.616009	0.955902	-0.064094	2.757802
150.288517	2114.629231	0.960907	-0.064214	2.763713
150.570963	2125.675600	0.965912	-0.064270	2.769572
151.244025	2136.676359	0.970917	-0.064399	2.775458
151.628496	2147.713631	0.975921	-0.064474	2.781304
152.031931	2158.722083	0.980926	-0.064552	2.787126
152.472482	2169.735929	0.985931	-0.064638	2.792944
152.956915	2180.751259	0.990936	-0.064731	2.798758
153.551021	2191.774114	0.995940	-0.064846	2.804581
153.956633	2202.826594	1.000945	-0.064924	2.810377
154.212701	2213.826694	1.005950	-0.064975	2.816110
154.640292	2224.830958	1.010954	-0.065058	2.821861
155.194657	2235.846906	1.015959	-0.065165	2.827626
155.757331	2246.890738	1.020964	-0.065273	2.833395
156.277010	2257.871161	1.025969	-0.065374	2.839112
156.867521	2268.919025	1.030973	-0.065487	2.844864
157.138468	2279.951413	1.035978	-0.065541	2.850546
157.625791	2290.943860	1.040983	-0.065635	2.856230
157.885528	2302.000504	1.045988	-0.065686	2.861899
158.331985	2312.991296	1.050992	-0.065773	2.867553
158.627302	2324.015553	1.055997	-0.065831	2.873189
159.011346	2335.041408	1.061002	-0.065906	2.878829
159.229700	2346.054079	1.066006	-0.065949	2.884425
160.068321	2357.049271	1.071011	-0.066109	2.890097
160.533533	2368.091126	1.076016	-0.066199	2.895724
161.108959	2379.104549	1.081021	-0.066310	2.901342
161.259857	2390.151661	1.086025	-0.066341	2.906902
161.660007	2401.147878	1.091030	-0.066419	2.912463
161.996324	2412.170621	1.096035	-0.066485	2.918017
162.346221	2423.185541	1.101039	-0.066553	2.923558
162.635790	2434.212459	1.106044	-0.066610	2.929086
163.162437	2445.211845	1.111049	-0.066712	2.934626
163.333103	2456.251691	1.116054	-0.066747	2.940121
163.798119	2467.245290	1.121058	-0.066837	2.945627
164.193515	2478.277279	1.126063	-0.066914	2.951132
164.685331	2489.292905	1.131068	-0.067009	2.956632
165.195566	2500.298624	1.136073	-0.067107	2.962120
165.536566	2511.338876	1.141077	-0.067174	2.967589
165.859439	2522.344124	1.146082	-0.067237	2.973029
166.118374	2533.377664	1.151087	-0.067288	2.978463
166.718301	2544.362903	1.156091	-0.067404	2.983913
167.428700	2555.399812	1.161096	-0.067540	2.989395
167.758720	2566.406970	1.166101	-0.067604	2.994796
168.230065	2577.450517	1.171106	-0.067695	3.000226
168.515589	2588.468452	1.176110	-0.067752	3.005606
168.897601	2599.497564	1.181115	-0.067826	3.010996
169.079905	2610.484991	1.186120	-0.067863	3.016328
169.642579	2621.488504	1.191125	-0.067971	3.021712
170.079885	2632.519209	1.196129	-0.068056	3.027082
170.571059	2643.548703	1.201134	-0.068151	3.032450
170.844013	2654.557124	1.206139	-0.068205	3.037766
171.411357	2665.568586	1.211143	-0.068314	3.043117
171.895714	2676.621490	1.216148	-0.068408	3.048465
172.330459	2687.622602	1.221153	-0.068492	3.053773
172.500563	2698.635316	1.226158	-0.068527	3.059040
173.034283	2709.653950	1.231162	-0.068630	3.064351
173.426813	2720.670922	1.236167	-0.068706	3.069633
173.880192	2731.676734	1.241172	-0.068794	3.074908
174.247415	2742.722815	1.246177	-0.068866	3.080182
174.574796	2753.740420	1.251181	-0.068930	3.085427
174.863111	2764.751529	1.256186	-0.068986	3.090655
175.081451	2775.775007	1.261191	-0.069030	3.095870
175.458768	2786.776428	1.266195	-0.069104	3.101087
176.023347	2797.754957	1.271200	-0.069212	3.106311
176.599073	2808.816737	1.276205	-0.069323	3.111567
177.065203	2819.813677	1.281210	-0.069413	3.116768
177.375557	2830.849779	1.286214	-0.069474	3.121958
177.737649	2841.882684	1.291219	-0.069545	3.127144
178.196486	2852.870307	1.296224	-0.069634	3.132314
178.708308	2863.894721	1.301228	-0.069733	3.137499
179.090337	2874.911143	1.306233	-0.069807	3.142654
179.409356	2885.960423	1.311238	-0.069870	3.147808
179.593410	2896.961320	1.316243	-0.069907	3.152912
179.854093	2907.989743	1.321247	-0.069958	3.158032
180.258026	2918.975581	1.326252	-0.070037	3.163142
180.636580	2930.024399	1.331257	-0.070111	3.168269
180.719205	2941.015490	1.336262	-0.070129	3.173323
181.192832	2952.043598	1.341266	-0.070221	3.178437
181.413541	2963.064992	1.346271	-0.070265	3.183506
181.712240	2974.087727	1.351276	-0.070323	3.188578
182.115927	2985.082142	1.356280	-0.070402	3.193643
182.443191	2996.108998	1.361285	-0.070466	3.198704
182.913006	3007.111067	1.366290	-0.070557	3.203765
183.450533	3018.159671	1.371295	-0.070661	3.208848
183.917440	3029.139116	1.376299	-0.070751	3.213882
184.337363	3040.182276	1.381304	-0.070832	3.218930
184.661962	3051.199383	1.386309	-0.070896	3.223947
185.001801	3062.232372	1.391314	-0.070963	3.228964
185.250094	3073.213391	1.396318	-0.071012	3.233939
185.702394	3084.248934	1.401323	-0.071099	3.238957
185.968684	3095.264196	1.406328	-0.071152	3.243933
186.267642	3106.287982	1.411332	-0.071211	3.248911
186.512418	3117.294199	1.416337	-0.071260	3.253865
187.170932	3128.306836	1.421342	-0.071386	3.258868
187.590356	3139.315000	1.426347	-0.071467	3.263830
187.842609	3150.368414	1.431351	-0.071517	3.268784
188.106262	3161.352675	1.436356	-0.071570	3.273701
188.575355	3172.369796	1.441361	-0.071660	3.278651
188.962439	3183.396364	1.446366	-0.071736	3.283587
189.432201	3194.438295	1.451370	-0.071827	3.288533
189.728928	3205.418495	1.456375	-0.071885	3.293422
189.996749	3216.455375	1.461380	-0.071938	3.298326
190.416708	3227.451642	1.466384	-0.072020	3.303223
190.878258	3238.491220	1.471389	-0.072109	3.308137
191.160901	3249.485906	1.476394	-0.072165	3.313001
191.814375	3260.496234	1.481399	-0.072290	3.317912
192.191534	3271.518781	1.486403	-0.072363	3.322786
192.376449	3282.576385	1.491408	-0.072401	3.327644
192.560294	3293.577657	1.496413	-0.072438	3.332471
192.961213	3304.581970	1.501417	-0.072516	3.337318
193.258791	3315.606621	1.506422	-0.072575	3.342155
193.762967	3326.613937	1.511427	-0.072672	3.347002
193.904825	3337.635746	1.516432	-0.072701	3.351805
194.508340	3348.640661	1.521436	-0.072817	3.356649
194.922079	3359.641594	1.526441	-0.072898	3.361461
195.502438	3370.680026	1.531446	-0.073009	3.366303
195.731170	3381.708690	1.536451	-0.073055	3.371090
196.011457	3392.716394	1.541455	-0.073110	3.375869
196.351356	3403.723341	1.546460	-0.073177	3.380647
196.867604	3414.742854	1.551465	-0.073276	3.385445
197.050377	3425.768677	1.556469	-0.073313	3.390199
197.369438	3436.786840	1.561474	-0.073376	3.394959
197.675264	3447.806202	1.566479	-0.073436	3.399711
198.034343	3458.818461	1.571484	-0.073506	3.404460
198.467142	3469.816491	1.576488	-0.073590	3.409205
198.944666	3480.827406	1.581493	-0.073682	3.413954
199.214993	3491.856369	1.586498	-0.073736	3.418679
199.558358	3502.876995	1.591503	-0.073803	3.423403
200.046995	3513.878958	1.596507	-0.073897	3.428129
200.413044	3524.908265	1.601512	-0.073969	3.432846
200.626416	3535.933883	1.606517	-0.074012	3.437538
200.935103	3546.952231	1.611521	-0.074072	3.442230
201.276713	3557.943550	1.616526	-0.074139	3.446909
201.681202	3568.980297	1.621531	-0.074218	3.451607
201.902577	3579.989184	1.626536	-0.074262	3.456267
202.363432	3590.983922	1.631540	-0.074351	3.460941
202.829472	3602.029011	1.636545	-0.074441	3.465631
203.090569	3613.039727	1.641550	-0.074493	3.470277
203.383066	3624.053133	1.646555	-0.074551	3.474921
203.877105	3635.078852	1.651559	-0.074646	3.479587
204.289518	3646.079984	1.656564	-0.074726	3.484226
204.575803	3657.112537	1.661569	-0.074783	3.488859
204.873465	3668.113411	1.666573	-0.074841	3.493473
205.296020	3679.131977	1.671578	-0.074923	3.498103
205.617218	3690.146414	1.676583	-0.074986	3.502713
206.068087	3701.182677	1.681588	-0.075074	3.507341
206.422959	3712.170942	1.686592	-0.075143	3.511932
206.659005	3723.212874	1.691597	-0.075190	3.516525
207.090231	3734.201570	1.696602	-0.075274	3.521113
207.414575	3745.255067	1.701606	-0.075337	3.525709
207.630758	3756.258449	1.706611	-0.075380	3.530267
207.906800	3767.251766	1.711616	-0.075435	3.534821
208.315883	3778.254867	1.716621	-0.075514	3.539388
208.612827	3789.307283	1.721625	-0.075573	3.543956
208.988424	3800.311186	1.726630	-0.075646	3.548508
209.137475	3811.359836	1.731635	-0.075677	3.553047
209.504722	3822.328341	1.736640	-0.075748	3.557571
209.986291	3833.347097	1.741644	-0.075842	3.562123
210.388558	3844.373257	1.746649	-0.075920	3.566663
210.595671	3855.393881	1.751654	-0.075961	3.571174
210.960242	3866.401189	1.756658	-0.076032	3.575690
211.323736	3877.416113	1.761663	-0.076103	3.580204
211.777678	3888.428877	1.766668	-0.076191	3.584721
211.948893	3899.485690	1.771673	-0.076226	3.589219
212.252422	3910.453427	1.776677	-0.076286	3.593690
212.577414	3921.508239	1.781682	-0.076350	3.598193
212.777020	3932.504428	1.786687	-0.076390	3.602653
213.031696	3943.533927	1.791692	-0.076440	3.607127
213.289139	3954.516104	1.796696	-0.076491	3.611577
213.649334	3965.548587	1.801701	-0.076562	3.616052
214.163373	3976.528764	1.806706	-0.076661	3.620517
214.701158	3987.578993	1.811710	-0.076764	3.625006
215.031309	3998.585850	1.816715	-0.076829	3.629451
215.478154	4009.617934	1.821720	-0.076916	3.633913
215.873734	4020.609457	1.826725	-0.076993	3.638347
216.211871	4031.651747	1.831729	-0.077059	3.642791
216.608443	4042.659579	1.836734	-0.077136	3.647221
216.772087	4053.661401	1.841739	-0.077169	3.651619
217.257186	4064.684364	1.846744	-0.077263	3.656053
217.622910	4075.704395	1.851748	-0.077334	3.660469
217.983533	4086.707896	1.856753	-0.077405	3.664872
218.225816	4097.771602	1.861758	-0.077453	3.669281
218.450226	4108.785614	1.866762	-0.077498	3.673663
218.719828	4119.832818	1.871767	-0.077551	3.678058
219.085805	4130.837549	1.876772	-0.077623	3.682441
219.466737	4141.857374	1.881777	-0.077697	3.686825
219.633306	4152.849540	1.886781	-0.077731	3.691172
219.834469	4163.887925	1.891786	-0.077771	3.695536
220.218476	4174.882640	1.896791	-0.077846	3.699895
220.419940	4185.928335	1.901795	-0.077887	3.704251
220.617582	4196.915686	1.906800	-0.077926	3.708578
220.974257	4207.956364	1.911805	-0.077996	3.712938
221.205504	4218.970790	1.916810	-0.078042	3.717269
221.639443	4229.952454	1.921814	-0.078126	3.721602
221.991683	4240.985131	1.926819	-0.078195	3.725943
222.601865	4251.961485	1.931824	-0.078312	3.730282
223.009716	4263.031180	1.936829	-0.078392	3.734631
223.209072	4274.019775	1.941833	-0.078432	3.738924
223.335624	4285.056712	1.946838	-0.078458	3.743223
223.716125	4296.068852	1.951843	-0.078532	3.747532
224.078656	4307.064731	1.956847	-0.078603	3.751829
224.523210	4318.099404	1.961852	-0.078689	3.756144
224.838107	4329.081631	1.966857	-0.078751	3.760420
