Wed Nov 23 17:50:12 2022

Number of Points = 2200
Depth (nm)	Load (µN)	Time (s)	Depth (V)	Load (V)
-8.249485	0.686498	0.000000	0.008709	1.033006
0.000000	5.921056	0.005005	0.007160	1.044731
13.525809	13.746352	0.010009	0.004620	1.062617
21.590460	25.725486	0.015014	0.003104	1.083100
24.082229	38.097080	0.020019	0.002634	1.100981
26.081246	49.584118	0.025024	0.002256	1.117173
28.262730	60.778461	0.030028	0.001843	1.132839
30.183387	71.975779	0.035033	0.001480	1.148171
32.268828	83.105754	0.040038	0.001086	1.163291
33.859129	94.307081	0.045043	0.000785	1.178078
35.497964	105.425824	0.050047	0.000475	1.192600
36.591287	116.671847	0.055052	0.000267	1.206858
38.025295	127.723082	0.060057	-0.000005	1.220865
39.320662	138.839053	0.065061	-0.000251	1.234728
40.531154	149.985048	0.070066	-0.000481	1.248436
41.392367	161.154601	0.075071	-0.000645	1.261872
42.400641	172.209788	0.080076	-0.000837	1.275097
43.328136	183.304158	0.085080	-0.001014	1.288196
44.610029	194.388662	0.090085	-0.001257	1.301298
45.449569	205.534191	0.095090	-0.001417	1.314156
46.828104	216.480704	0.100094	-0.001679	1.326885
47.894374	227.615155	0.105099	-0.001882	1.339575
48.967003	238.711321	0.110104	-0.002086	1.352106
50.014102	249.785779	0.115109	-0.002285	1.364487
51.157964	260.854209	0.120113	-0.002502	1.376788
52.104033	271.975899	0.125118	-0.002682	1.388959
53.167304	283.002589	0.130123	-0.002885	1.400969
54.110653	294.114297	0.135128	-0.003064	1.412920
55.131009	305.160567	0.140132	-0.003259	1.424731
56.022882	316.266230	0.145137	-0.003429	1.436457
57.076734	327.278440	0.150142	-0.003629	1.448053
57.963686	338.412628	0.155146	-0.003798	1.459618
58.957797	349.439492	0.160151	-0.003988	1.471023
60.005434	360.465344	0.165156	-0.004187	1.482358
61.028416	371.557553	0.170161	-0.004382	1.493662
61.915518	382.639346	0.175165	-0.004551	1.504823
62.814350	393.692689	0.180170	-0.004722	1.515879
63.780207	404.752189	0.185175	-0.004906	1.526882
64.721753	415.802717	0.190180	-0.005086	1.537790
65.742831	426.853000	0.195184	-0.005280	1.548647
66.827668	437.898179	0.200189	-0.005486	1.559444
67.793030	448.968467	0.205194	-0.005670	1.570150
68.857155	460.017729	0.210198	-0.005873	1.580797
69.560548	471.105919	0.215203	-0.006007	1.591288
70.434081	482.161455	0.220208	-0.006174	1.601736
71.059845	493.233437	0.225213	-0.006294	1.612051
72.126454	504.244541	0.230217	-0.006497	1.622387
72.670837	515.341277	0.235222	-0.006602	1.632566
73.618535	526.324963	0.240227	-0.006782	1.642710
74.464923	537.368907	0.245232	-0.006944	1.652812
75.251289	548.472371	0.250236	-0.007094	1.662886
75.858533	559.517334	0.255241	-0.007211	1.672792
77.085668	570.481924	0.260246	-0.007444	1.682761
77.608790	581.629097	0.265250	-0.007545	1.692613
78.732963	592.596305	0.270255	-0.007758	1.702435
79.488123	603.657322	0.275260	-0.007903	1.712169
80.225199	614.747989	0.280265	-0.008044	1.721868
80.880125	625.793293	0.285269	-0.008170	1.731449
81.629919	636.801393	0.290274	-0.008313	1.740974
82.372409	647.867271	0.295279	-0.008455	1.750493
83.088152	658.920494	0.300283	-0.008592	1.759941
83.856288	669.915072	0.305288	-0.008739	1.769306
84.704817	680.996315	0.310293	-0.008901	1.778715
85.264101	692.025786	0.315298	-0.009009	1.787949
86.193700	703.047015	0.320302	-0.009186	1.797234
86.952629	714.106691	0.325307	-0.009331	1.806454
88.014246	725.095684	0.330312	-0.009533	1.815656
88.674067	736.180022	0.335317	-0.009659	1.824774
89.560709	747.201076	0.340321	-0.009828	1.833859
90.254283	758.271108	0.345326	-0.009961	1.842884
91.097702	769.294478	0.350331	-0.010122	1.851869
91.751215	780.359266	0.355335	-0.010248	1.860792
92.587029	791.341106	0.360340	-0.010407	1.869656
93.266704	802.419222	0.365345	-0.010537	1.878510
93.878637	813.471727	0.370350	-0.010655	1.887284
94.315355	824.531486	0.375354	-0.010740	1.895976
95.037890	835.513254	0.380359	-0.010878	1.904645
95.723143	846.562283	0.385364	-0.011009	1.913315
96.391220	857.600197	0.390369	-0.011137	1.921934
96.959758	868.649685	0.395373	-0.011247	1.930496
97.512294	879.700135	0.400378	-0.011353	1.939016
98.280031	890.657502	0.405383	-0.011500	1.947485
99.055307	901.713262	0.410387	-0.011648	1.955992
99.888401	912.739671	0.415392	-0.011807	1.964456
100.643662	923.803440	0.420397	-0.011952	1.972890
101.010120	934.867656	0.425402	-0.012023	1.981190
101.601206	945.883832	0.430406	-0.012137	1.989476
102.203297	956.894049	0.435411	-0.012253	1.997726
103.017937	967.906931	0.440416	-0.012408	2.005997
103.786896	978.948349	0.445421	-0.012555	2.014244
104.423821	990.014135	0.450425	-0.012677	2.022441
104.920550	1001.049940	0.455430	-0.012773	2.030548
105.419442	1012.081287	0.460435	-0.012870	2.038621
105.998175	1023.095795	0.465439	-0.012981	2.046668
106.552736	1034.150407	0.470444	-0.013088	2.054707
107.096852	1045.166461	0.475449	-0.013193	2.062684
107.747318	1056.200464	0.480454	-0.013317	2.070669
108.342180	1067.220970	0.485458	-0.013432	2.078600
109.180975	1078.227246	0.490463	-0.013592	2.086549
109.747977	1089.315385	0.495468	-0.013701	2.094459
110.254227	1100.317253	0.500472	-0.013799	2.102266
110.774567	1111.348327	0.505477	-0.013899	2.110066
111.203409	1122.419643	0.510482	-0.013982	2.117845
111.775327	1133.392404	0.515487	-0.014092	2.125560
112.190625	1144.463840	0.520491	-0.014173	2.133278
112.847290	1155.449342	0.525496	-0.014299	2.140965
113.605663	1166.460056	0.530501	-0.014444	2.148666
114.365163	1177.503019	0.535506	-0.014589	2.156361
114.856167	1188.572373	0.540510	-0.014684	2.163984
115.244452	1199.604928	0.545515	-0.014760	2.171532
115.905275	1210.597261	0.550520	-0.014886	2.179089
116.442765	1221.630290	0.555524	-0.014990	2.186619
117.230134	1232.638128	0.560529	-0.015140	2.194162
117.819121	1243.674256	0.565534	-0.015254	2.201654
118.328156	1254.742063	0.570539	-0.015352	2.209122
118.808531	1265.749274	0.575543	-0.015445	2.216520
119.365061	1276.779870	0.580548	-0.015552	2.223924
119.880459	1287.803316	0.585553	-0.015651	2.231290
120.400356	1298.825617	0.590558	-0.015752	2.238632
120.944723	1309.848330	0.595562	-0.015857	2.245955
121.203694	1320.928451	0.600567	-0.015908	2.253230
121.464492	1331.928648	0.605572	-0.015960	2.260429
122.108306	1342.930468	0.610576	-0.016083	2.267690
122.668697	1353.941020	0.615581	-0.016191	2.274914
123.383178	1364.977397	0.620586	-0.016328	2.282165
123.817192	1376.010481	0.625591	-0.016412	2.289331
124.336397	1387.035789	0.630595	-0.016512	2.296488
124.975668	1398.042622	0.635600	-0.016635	2.303636
126.170537	1408.943145	0.640605	-0.016862	2.310811
127.512840	1420.087822	0.645610	-0.017116	2.318149
127.966098	1431.145931	0.650614	-0.017204	2.325223
128.378730	1442.168202	0.655619	-0.017284	2.332244
128.740657	1453.228714	0.660624	-0.017355	2.339257
129.130224	1464.215612	0.665628	-0.017431	2.346209
129.769527	1475.222753	0.670633	-0.017553	2.353204
130.266671	1486.254357	0.675638	-0.017649	2.360165
130.849265	1497.283516	0.680643	-0.017761	2.367120
131.260168	1508.340501	0.685647	-0.017841	2.374038
131.782841	1519.308023	0.690652	-0.017942	2.380902
132.326203	1530.353607	0.695657	-0.018047	2.387799
133.411742	1541.253425	0.700661	-0.018253	2.394696
135.099567	1552.324711	0.705666	-0.018573	2.401798
135.918936	1563.399405	0.710671	-0.018729	2.408707
137.059529	1574.388791	0.715676	-0.018946	2.415608
137.915017	1585.446834	0.720680	-0.019109	2.422474
138.610372	1596.472788	0.725685	-0.019242	2.429270
139.289856	1607.512508	0.730690	-0.019373	2.436051
139.683371	1618.551616	0.735695	-0.019449	2.442757
139.986534	1629.600038	0.740699	-0.019509	2.449432
140.451127	1640.588622	0.745704	-0.019599	2.456084
141.377627	1651.567671	0.750709	-0.019775	2.462803
142.173635	1662.604850	0.755713	-0.019927	2.469512
142.810842	1673.669027	0.760718	-0.020050	2.476188
143.392807	1684.672173	0.765723	-0.020162	2.482800
144.002876	1695.708833	0.770728	-0.020279	2.489418
144.669369	1706.718581	0.775732	-0.020407	2.496014
145.123997	1717.753067	0.780737	-0.020495	2.502567
145.663773	1728.762231	0.785742	-0.020599	2.509103
146.180189	1739.802828	0.790747	-0.020698	2.515636
146.760005	1750.823573	0.795751	-0.020810	2.522153
147.181335	1761.840035	0.800756	-0.020892	2.528620
147.924186	1772.842160	0.805761	-0.021034	2.535123
148.399297	1783.902910	0.810765	-0.021126	2.541592
148.935895	1794.892551	0.815770	-0.021229	2.548016
149.557310	1805.936434	0.820775	-0.021348	2.554470
149.851075	1816.963987	0.825780	-0.021406	2.560838
150.326888	1827.981609	0.830784	-0.021498	2.567217
150.827838	1839.029372	0.835789	-0.021595	2.573603
151.136432	1850.079341	0.840794	-0.021656	2.579938
151.835747	1860.994807	0.845799	-0.021789	2.586253
152.610705	1872.055997	0.850803	-0.021938	2.592648
153.194987	1883.056218	0.855808	-0.022050	2.598959
153.463908	1894.136617	0.860813	-0.022103	2.605242
153.768382	1905.166225	0.865817	-0.022163	2.611488
154.179501	1916.124386	0.870822	-0.022243	2.617699
154.946606	1927.127221	0.875827	-0.022390	2.623982
155.728334	1938.179728	0.880832	-0.022539	2.630281
156.179031	1949.208163	0.885836	-0.022626	2.636492
156.641916	1960.250036	0.890841	-0.022716	2.642698
156.999748	1971.251651	0.895846	-0.022786	2.648849
157.644096	1982.252782	0.900850	-0.022909	2.655036
158.388833	1993.282883	0.905855	-0.023052	2.661241
158.746420	2004.332304	0.910860	-0.023122	2.667375
159.259174	2015.330507	0.915865	-0.023221	2.673493
159.501996	2026.379507	0.920869	-0.023269	2.679579
160.092651	2037.357046	0.925874	-0.023382	2.685671
160.722529	2048.380033	0.930879	-0.023503	2.691781
161.100264	2059.389438	0.935884	-0.023577	2.697827
161.313726	2070.436088	0.940888	-0.023620	2.703851
161.776383	2081.444105	0.945893	-0.023709	2.709883
162.229062	2092.448535	0.950898	-0.023797	2.715898
162.722679	2103.478411	0.955902	-0.023892	2.721920
163.388363	2114.504842	0.960907	-0.024020	2.727955
163.836807	2125.497684	0.965912	-0.024107	2.733923
164.170746	2136.549309	0.970917	-0.024172	2.739890
164.663059	2147.542989	0.975921	-0.024267	2.745839
165.135572	2158.587884	0.980926	-0.024359	2.751799
165.658209	2169.592814	0.985931	-0.024459	2.757734
166.173941	2180.599511	0.990936	-0.024559	2.763655
166.593150	2191.642311	0.995940	-0.024640	2.769566
166.935109	2202.664676	1.000945	-0.024707	2.775442
167.527068	2213.658955	1.005950	-0.024821	2.781331
168.073546	2224.692042	1.010954	-0.024926	2.787220
168.660540	2235.696615	1.015959	-0.025039	2.793088
168.880271	2246.759890	1.020964	-0.025083	2.798915
169.181690	2257.779828	1.025969	-0.025142	2.804721
169.618973	2268.768798	1.030973	-0.025227	2.810520
170.211458	2279.788732	1.035978	-0.025341	2.816348
170.816766	2290.802961	1.040983	-0.025457	2.822163
171.537174	2301.791137	1.045988	-0.025595	2.827971
171.846887	2312.879651	1.050992	-0.025656	2.833753
172.178946	2323.887971	1.055997	-0.025721	2.839485
172.159548	2334.945521	1.061002	-0.025720	2.845175
172.740208	2345.893598	1.066006	-0.025832	2.850893
173.240495	2356.931783	1.071011	-0.025929	2.856632
173.629510	2367.943375	1.076016	-0.026004	2.862329
174.033680	2378.975770	1.081021	-0.026083	2.868027
174.562275	2389.977022	1.086025	-0.026185	2.873718
174.909825	2401.028046	1.091030	-0.026253	2.879394
175.496376	2411.993500	1.096035	-0.026366	2.885053
176.038849	2423.057597	1.101039	-0.026470	2.890743
176.262777	2434.102025	1.106044	-0.026515	2.896363
176.568341	2445.083757	1.111049	-0.026575	2.901953
177.015092	2456.088536	1.116054	-0.026661	2.907565
177.500384	2467.123224	1.121058	-0.026755	2.913188
178.076524	2478.107869	1.126063	-0.026866	2.918788
178.599726	2489.166609	1.131068	-0.026967	2.924406
178.882818	2500.185934	1.136073	-0.027023	2.929958
179.157447	2511.206514	1.141077	-0.027077	2.935498
179.864302	2522.180243	1.146082	-0.027212	2.941069
180.455896	2533.235121	1.151087	-0.027326	2.946653
180.995948	2544.232799	1.156091	-0.027430	2.952190
181.540156	2555.262478	1.161096	-0.027535	2.957733
181.727103	2566.306571	1.166101	-0.027573	2.963219
181.771968	2577.356050	1.171106	-0.027584	2.968676
182.310460	2588.304015	1.176110	-0.027688	2.974146
182.846693	2599.339559	1.181115	-0.027791	2.979650
183.420297	2610.344711	1.186120	-0.027901	2.985133
183.659207	2621.412909	1.191125	-0.027949	2.990588
184.140026	2632.379519	1.196129	-0.028042	2.996019
184.589398	2643.427271	1.201134	-0.028129	3.001474
185.368195	2654.395990	1.206139	-0.028278	3.006930
185.841135	2665.461907	1.211143	-0.028369	3.012378
185.973106	2676.490304	1.216148	-0.028397	3.017748
186.372615	2687.489289	1.221153	-0.028475	3.023133
186.770982	2698.506090	1.226158	-0.028552	3.028517
187.047815	2709.540442	1.231162	-0.028607	3.033882
187.280565	2720.557864	1.236167	-0.028653	3.039223
187.684047	2731.579694	1.241172	-0.028732	3.044581
187.938921	2742.587602	1.246177	-0.028782	3.049902
188.260738	2753.615282	1.251181	-0.028845	3.055233
189.016204	2764.562877	1.256186	-0.028990	3.060577
189.946966	2775.611799	1.261191	-0.029167	3.065985
190.341240	2786.647933	1.266195	-0.029244	3.071302
190.773804	2797.656139	1.271200	-0.029328	3.076601
191.645271	2808.652973	1.276205	-0.029494	3.081948
192.033100	2819.705728	1.281210	-0.029569	3.087243
192.591337	2830.703685	1.286214	-0.029677	3.092528
192.922317	2841.751889	1.291219	-0.029742	3.097795
193.353751	2852.739905	1.296224	-0.029825	3.103038
193.877433	2863.790079	1.301228	-0.029926	3.108315
194.120248	2874.805496	1.306233	-0.029975	3.113528
194.418124	2885.821420	1.311238	-0.030033	3.118739
194.795952	2896.809224	1.316243	-0.030107	3.123940
195.277213	2907.854803	1.321247	-0.030200	3.129173
195.631909	2918.878278	1.326252	-0.030269	3.134370
195.922503	2929.895672	1.331257	-0.030326	3.139546
196.206419	2940.901966	1.336262	-0.030382	3.144707
196.482999	2951.930811	1.341266	-0.030437	3.149870
197.119616	2962.909752	1.346271	-0.030559	3.155050
197.705321	2973.945229	1.351276	-0.030672	3.160240
198.410083	2984.939027	1.356280	-0.030807	3.165418
199.150972	2995.989771	1.361285	-0.030949	3.170619
199.546148	3006.992050	1.366290	-0.031026	3.175743
199.885539	3018.029432	1.371295	-0.031092	3.180867
200.437871	3029.029835	1.376299	-0.031198	3.185994
200.743615	3040.052057	1.381304	-0.031258	3.191089
201.153649	3051.083781	1.386309	-0.031338	3.196195
201.529207	3062.097777	1.391314	-0.031411	3.201280
202.000495	3073.106049	1.396318	-0.031502	3.206367
202.386831	3084.128081	1.401323	-0.031578	3.211440
202.942308	3095.109424	1.406328	-0.031685	3.216509
203.495980	3106.158023	1.411332	-0.031791	3.221601
203.815085	3117.182134	1.416337	-0.031854	3.226642
204.154160	3128.202879	1.421342	-0.031920	3.231677
204.687056	3139.175661	1.426347	-0.032023	3.236707
205.236111	3150.216785	1.431351	-0.032129	3.241762
205.839792	3161.242675	1.436356	-0.032245	3.246809
206.423243	3172.252572	1.441361	-0.032357	3.251839
206.830489	3183.278500	1.446366	-0.032436	3.256845
207.246105	3194.285978	1.451370	-0.032517	3.261836
207.619828	3205.311571	1.456375	-0.032590	3.266822
208.013437	3216.338920	1.461380	-0.032666	3.271804
208.414697	3227.340705	1.466384	-0.032744	3.276768
208.677720	3238.368904	1.471389	-0.032796	3.281718
209.312001	3249.374828	1.476394	-0.032918	3.286698
209.587093	3260.418168	1.481399	-0.032972	3.291641
210.172139	3271.391584	1.486403	-0.033085	3.296585
210.534557	3282.443945	1.491408	-0.033156	3.301529
210.956121	3293.435711	1.496413	-0.033237	3.306445
211.446264	3304.458038	1.501417	-0.033332	3.311376
211.875282	3315.474951	1.506422	-0.033415	3.316290
212.274562	3326.509251	1.511427	-0.033493	3.321200
212.693324	3337.516409	1.516432	-0.033574	3.326094
212.998244	3348.533240	1.521436	-0.033634	3.330970
213.468663	3359.549716	1.526441	-0.033725	3.335860
214.065881	3370.538498	1.531446	-0.033840	3.340745
214.731347	3381.573319	1.536451	-0.033968	3.345652
215.220714	3392.603005	1.541455	-0.034062	3.350528
215.496783	3403.614615	1.546460	-0.034117	3.355362
215.948407	3414.631104	1.551465	-0.034204	3.360213
216.240507	3425.649784	1.556469	-0.034262	3.365038
216.726151	3436.693653	1.561474	-0.034356	3.369891
216.992444	3447.666857	1.566479	-0.034408	3.374680
217.374060	3458.700159	1.571484	-0.034483	3.379501
217.917260	3469.705880	1.576488	-0.034587	3.384324
218.365132	3480.758062	1.581493	-0.034674	3.389147
218.561348	3491.732051	1.586498	-0.034714	3.393900
218.940557	3502.777345	1.591503	-0.034787	3.398699
219.146048	3513.785919	1.596507	-0.034829	3.403455
219.739969	3524.781439	1.601512	-0.034943	3.408244
220.136299	3535.805599	1.606517	-0.035020	3.413015
220.482658	3546.832422	1.611521	-0.035088	3.417775
220.754627	3557.839278	1.616526	-0.035141	3.422511
221.183035	3568.874693	1.621531	-0.035225	3.427271
221.731761	3579.859587	1.626536	-0.035330	3.432017
222.321951	3590.894272	1.631540	-0.035444	3.436782
222.534341	3601.925622	1.636545	-0.035486	3.441494
223.001915	3612.940942	1.641550	-0.035577	3.446224
223.433504	3623.930147	1.646555	-0.035660	3.450931
223.813836	3634.961425	1.651559	-0.035735	3.455644
224.156105	3645.974972	1.656564	-0.035802	3.460338
224.426268	3657.011020	1.661569	-0.035855	3.465027
224.859352	3668.009422	1.666573	-0.035939	3.469712
225.364895	3678.995819	1.671578	-0.036036	3.474395
225.864858	3690.033233	1.676583	-0.036133	3.479091
226.226612	3701.086621	1.681588	-0.036204	3.483773
226.798662	3712.067951	1.686592	-0.036314	3.488441
227.124525	3723.082466	1.691597	-0.036378	3.493089
227.649954	3734.089682	1.696602	-0.036479	3.497751
228.074069	3745.117968	1.701606	-0.036561	3.502403
228.563826	3756.137463	1.706611	-0.036656	3.507053
228.607826	3767.182900	1.711616	-0.036667	3.511657
229.140698	3778.154468	1.716621	-0.036770	3.516279
229.395859	3789.200493	1.721625	-0.036820	3.520895
229.697830	3800.206387	1.726630	-0.036880	3.525494
230.026976	3811.235416	1.731635	-0.036944	3.530099
230.297782	3822.226953	1.736640	-0.036998	3.534676
230.865210	3833.253453	1.741644	-0.037107	3.539294
231.117581	3844.267059	1.746649	-0.037157	3.543866
231.563265	3855.282445	1.751654	-0.037243	3.548454
231.736926	3866.318171	1.756658	-0.037279	3.553014
232.038586	3877.322407	1.761663	-0.037338	3.557570
232.425701	3888.316545	1.766668	-0.037413	3.562125
232.821540	3899.347921	1.771673	-0.037490	3.566690
233.365185	3910.351114	1.776677	-0.037595	3.571254
233.749057	3921.378817	1.781682	-0.037670	3.575805
234.216995	3932.374711	1.786687	-0.037760	3.580346
234.598823	3943.424860	1.791692	-0.037835	3.584894
235.087462	3954.404882	1.796696	-0.037929	3.589419
235.211828	3965.463324	1.801701	-0.037955	3.593930
235.775160	3976.431911	1.806706	-0.038064	3.598447
236.353080	3987.505616	1.811710	-0.038175	3.603002
236.966711	3998.467957	1.816715	-0.038293	3.607511
237.278867	4009.517674	1.821720	-0.038354	3.612016
237.681069	4020.505029	1.826725	-0.038432	3.616500
237.783358	4031.557220	1.831729	-0.038454	3.620973
238.269859	4042.532321	1.836734	-0.038548	3.625450
238.673222	4053.575992	1.841739	-0.038626	3.629940
238.899723	4064.580990	1.846744	-0.038672	3.634390
239.310234	4075.605572	1.851748	-0.038751	3.638862
239.767372	4086.619338	1.856753	-0.038840	3.643329
240.206965	4097.670362	1.861758	-0.038925	3.647803
240.609181	4108.676487	1.866762	-0.039003	3.652250
241.025610	4119.707503	1.871767	-0.039084	3.656703
241.348939	4130.712604	1.876772	-0.039148	3.661130
241.697625	4141.759140	1.881777	-0.039216	3.665571
242.140416	4152.760229	1.886781	-0.039302	3.669999
242.528135	4163.779192	1.891786	-0.039377	3.674422
242.956644	4174.777531	1.896791	-0.039460	3.678836
243.359146	4185.813568	1.901795	-0.039538	3.683257
243.810479	4196.842608	1.906800	-0.039626	3.687674
243.945281	4207.853276	1.911805	-0.039654	3.692047
244.226539	4218.854030	1.916810	-0.039709	3.696425
244.567901	4229.855621	1.921814	-0.039776	3.700805
244.968996	4240.883552	1.926819	-0.039854	3.705195
245.245691	4251.914356	1.931824	-0.039909	3.709569
245.576503	4262.902330	1.936829	-0.039974	3.713927
245.814531	4273.949761	1.941833	-0.040021	3.718293
246.255533	4284.946788	1.946838	-0.040106	3.722654
246.842492	4295.958461	1.951843	-0.040219	3.727032
247.183806	4306.947231	1.956847	-0.040286	3.731370
247.599600	4317.986603	1.961852	-0.040367	3.735730
247.944980	4328.997390	1.966857	-0.040434	3.740067
