Wed Nov 23 18:28:15 2022

Number of Points = 2200
Depth (nm)	Load (µN)	Time (s)	Depth (V)	Load (V)
-1.108149	1.078089	0.000000	0.004056	1.046534
0.000000	7.805840	0.005005	0.003847	1.056507
1.086457	17.159812	0.010009	0.003641	1.069989
2.075876	27.861152	0.015014	0.003452	1.085079
3.071023	38.912786	0.020019	0.003263	1.100433
3.846777	50.059726	0.025024	0.003115	1.115593
4.729622	61.183183	0.030028	0.002946	1.130571
5.313368	72.380692	0.035033	0.002834	1.145305
6.052681	83.456213	0.040038	0.002692	1.159770
6.826784	94.553962	0.045043	0.002544	1.174100
7.397283	105.722494	0.050047	0.002435	1.188252
7.900212	116.840009	0.055052	0.002337	1.202144
8.659786	127.900684	0.060057	0.002192	1.215922
9.069778	139.069940	0.065061	0.002112	1.229522
9.615369	150.164261	0.070066	0.002007	1.242943
10.022399	161.253331	0.075071	0.001928	1.256155
10.767495	172.299396	0.080076	0.001786	1.269322
11.242365	183.425339	0.085080	0.001694	1.282332
11.837814	194.506664	0.090085	0.001579	1.295210
12.263147	205.671045	0.095090	0.001497	1.307985
12.880035	216.672442	0.100094	0.001378	1.320532
13.237313	227.773435	0.105099	0.001308	1.332967
13.838894	238.837725	0.110104	0.001193	1.345343
14.308503	249.920813	0.115109	0.001102	1.357574
14.825076	260.987968	0.120113	0.001002	1.369697
15.178340	272.106606	0.125118	0.000933	1.381705
15.604666	283.146236	0.130123	0.000851	1.393554
15.966459	294.246365	0.135128	0.000780	1.405342
16.504493	305.261003	0.140132	0.000676	1.417009
16.999660	316.347681	0.145137	0.000581	1.428639
17.308175	327.445045	0.150142	0.000520	1.440116
17.700246	338.492755	0.155146	0.000444	1.451483
18.199525	349.558454	0.160151	0.000347	1.462818
18.679926	360.592762	0.165156	0.000254	1.474027
19.104750	371.678137	0.170161	0.000172	1.485183
19.486844	382.740769	0.175165	0.000097	1.496217
19.986697	393.787822	0.180170	0.000001	1.507197
23.490151	403.690206	0.185175	-0.000659	1.518033
52.400651	411.440702	0.190180	-0.006086	1.535460
52.880260	426.509456	0.195184	-0.006179	1.549957
53.278336	438.035533	0.200189	-0.006257	1.560965
53.940843	449.058452	0.205194	-0.006384	1.571515
54.368963	460.182457	0.210198	-0.006467	1.582009
54.978167	471.180569	0.215203	-0.006584	1.592378
55.781820	482.201345	0.220208	-0.006738	1.602764
56.516995	493.276581	0.225213	-0.006878	1.613109
57.443765	504.295290	0.230217	-0.007055	1.623399
58.306356	515.353410	0.235222	-0.007219	1.633639
58.866620	526.452852	0.240227	-0.007327	1.643755
59.107917	537.529502	0.245232	-0.007375	1.653688
60.146105	548.438743	0.250236	-0.007573	1.663664
61.293522	559.495381	0.255241	-0.007791	1.673743
61.873916	570.617988	0.260246	-0.007903	1.683643
62.767324	581.616691	0.265250	-0.008073	1.693474
63.749004	592.654000	0.270255	-0.008260	1.703308
64.302214	603.739978	0.275260	-0.008366	1.712997
65.407301	614.742572	0.280265	-0.008576	1.722726
65.937154	625.846587	0.285269	-0.008679	1.732314
67.246947	636.779974	0.290274	-0.008927	1.741937
67.779709	647.945635	0.295279	-0.009030	1.751471
68.479715	658.948274	0.300283	-0.009164	1.760867
69.363269	669.953136	0.305288	-0.009332	1.770268
69.990651	681.062059	0.310293	-0.009453	1.779630
70.636602	692.082367	0.315298	-0.009577	1.788876
71.800445	703.031402	0.320302	-0.009798	1.798164
72.702634	714.123824	0.325307	-0.009970	1.807446
73.593751	725.179238	0.330312	-0.010140	1.816647
74.520578	736.188863	0.335317	-0.010317	1.825774
75.258587	747.264087	0.340321	-0.010458	1.834855
75.688579	758.341150	0.345326	-0.010541	1.843807
76.553021	769.334370	0.350331	-0.010706	1.852769
77.359336	780.359556	0.355335	-0.010860	1.861697
78.554250	791.373948	0.360340	-0.011087	1.870680
79.083003	802.487100	0.365345	-0.011189	1.879515
79.993639	813.447472	0.370350	-0.011363	1.888293
80.732780	824.542595	0.375354	-0.011504	1.897088
81.029450	835.625176	0.380359	-0.011562	1.905714
82.299567	846.487255	0.385364	-0.011804	1.914392
83.265876	857.627849	0.390369	-0.011988	1.923161
83.952598	868.670155	0.395373	-0.012119	1.931742
84.375229	879.773801	0.400378	-0.012201	1.940262
84.527149	890.799955	0.405383	-0.012232	1.948616
85.386067	901.751377	0.410387	-0.012396	1.957062
85.947720	912.809889	0.415392	-0.012504	1.965474
86.930616	923.812529	0.420397	-0.012692	1.973916
87.557602	934.878868	0.425402	-0.012812	1.982278
87.943269	945.945684	0.430406	-0.012887	1.990544
88.623176	956.921171	0.435411	-0.013017	1.998783
89.292344	967.997489	0.440416	-0.013146	2.007059
90.178952	978.975764	0.445421	-0.013315	2.015284
91.340459	989.955600	0.450425	-0.013535	2.023544
92.032727	1001.075154	0.455430	-0.013668	2.031755
92.663848	1012.106327	0.460435	-0.013789	2.039854
93.372355	1023.114442	0.465439	-0.013925	2.047923
94.226928	1034.161166	0.470444	-0.014088	2.056023
94.922811	1045.190724	0.475449	-0.014221	2.064041
95.702590	1056.227480	0.480454	-0.014370	2.072052
96.452688	1067.263903	0.485458	-0.014514	2.080025
97.043526	1078.295750	0.490463	-0.014627	2.087926
97.541795	1089.355891	0.495468	-0.014724	2.095795
98.128285	1100.348302	0.500472	-0.014836	2.103607
98.828064	1111.385066	0.505477	-0.014970	2.111448
99.394729	1122.418499	0.510482	-0.015080	2.119226
100.105108	1133.441080	0.515487	-0.015216	2.127002
100.675377	1144.481509	0.520491	-0.015325	2.134729
101.529503	1155.438866	0.525496	-0.015488	2.142436
102.277879	1166.553722	0.530501	-0.015631	2.150199
102.779733	1177.561476	0.535506	-0.015728	2.157804
103.397222	1188.604919	0.540510	-0.015847	2.165432
103.830730	1199.637451	0.545515	-0.015931	2.172985
104.530594	1210.649374	0.550520	-0.016065	2.180557
105.069461	1221.663344	0.555524	-0.016169	2.188068
106.021609	1232.665860	0.560529	-0.016350	2.195639
106.374195	1243.761513	0.565534	-0.016419	2.203111
107.213454	1254.726203	0.570539	-0.016579	2.210579
107.567894	1265.815270	0.575543	-0.016649	2.217996
108.352452	1276.792070	0.580548	-0.016799	2.225409
108.892058	1287.831533	0.585553	-0.016903	2.232785
109.396676	1298.887961	0.590558	-0.017000	2.240140
109.940638	1309.906876	0.595562	-0.017105	2.247454
110.733342	1320.901645	0.600567	-0.017256	2.254783
111.343641	1331.931683	0.605572	-0.017374	2.262072
112.229006	1342.935609	0.610576	-0.017542	2.269379
113.144384	1353.950218	0.615581	-0.017717	2.276676
113.776892	1365.029210	0.620586	-0.017838	2.283929
114.430223	1376.019632	0.625591	-0.017964	2.291108
115.038512	1387.070660	0.630595	-0.018080	2.298293
115.454328	1398.113524	0.635600	-0.018161	2.305409
115.924106	1409.152797	0.640605	-0.018252	2.312512
116.443747	1420.132852	0.645610	-0.018352	2.319567
116.977895	1431.191452	0.650614	-0.018455	2.326652
117.481373	1442.215483	0.655619	-0.018552	2.333688
118.166178	1453.202758	0.660624	-0.018684	2.340717
118.782673	1464.226272	0.665628	-0.018802	2.347733
119.665633	1475.250265	0.670633	-0.018971	2.354783
119.896776	1486.328434	0.675638	-0.019017	2.361711
120.569038	1497.334917	0.680643	-0.019146	2.368666
121.060152	1508.326252	0.685647	-0.019240	2.375553
121.855585	1519.365667	0.690652	-0.019392	2.382511
122.490659	1530.386278	0.695657	-0.019514	2.389405
123.155339	1541.414893	0.700661	-0.019642	2.396290
123.793295	1552.423582	0.705666	-0.019764	2.403137
124.438646	1563.462738	0.710671	-0.019888	2.409985
124.546065	1574.548662	0.715676	-0.019911	2.416734
125.119021	1585.502679	0.720680	-0.020021	2.423477
125.592434	1596.535729	0.725685	-0.020113	2.430230
126.215908	1607.555192	0.730690	-0.020232	2.436984
126.787171	1618.581584	0.735695	-0.020342	2.443714
127.448451	1629.596480	0.740699	-0.020469	2.450435
127.905039	1640.633268	0.745704	-0.020558	2.457112
128.477491	1651.668982	0.750709	-0.020668	2.463792
128.980483	1662.662036	0.755713	-0.020765	2.470414
129.683786	1673.688719	0.760718	-0.020899	2.477078
130.121957	1684.743487	0.765723	-0.020984	2.483689
130.653127	1695.748204	0.770728	-0.021087	2.490271
131.058426	1706.777138	0.775732	-0.021166	2.496825
131.667825	1717.794999	0.780737	-0.021283	2.503394
132.154292	1728.805507	0.785742	-0.021377	2.509919
132.493051	1739.869369	0.790747	-0.021443	2.516429
132.756192	1750.887353	0.795751	-0.021495	2.522882
133.201507	1761.886852	0.800756	-0.021581	2.529341
133.723250	1772.889589	0.805761	-0.021682	2.535800
134.415050	1783.904957	0.810765	-0.021815	2.542282
134.799890	1794.968042	0.815770	-0.021889	2.548717
135.300026	1805.972616	0.820775	-0.021986	2.555124
135.681746	1817.006519	0.825780	-0.022060	2.561509
136.309353	1828.006880	0.830784	-0.022181	2.567905
136.744707	1839.088031	0.835789	-0.022265	2.574295
137.242812	1850.076191	0.840794	-0.022362	2.580628
137.853210	1861.055438	0.845799	-0.022479	2.586960
138.383481	1872.116330	0.850803	-0.022581	2.593308
138.765431	1883.123422	0.855808	-0.022655	2.599584
139.380468	1894.114139	0.860813	-0.022774	2.605877
140.035191	1905.153553	0.865817	-0.022899	2.612190
140.569278	1916.199089	0.870822	-0.023002	2.618468
141.150943	1927.183070	0.875827	-0.023114	2.624706
141.703696	1938.228718	0.880832	-0.023220	2.630958
142.133881	1949.247654	0.885836	-0.023304	2.637158
142.978110	1960.238498	0.890841	-0.023465	2.643401
143.650717	1971.269523	0.895846	-0.023594	2.649621
144.232123	1982.331720	0.900850	-0.023706	2.655828
144.692118	1993.317761	0.905855	-0.023795	2.661956
145.290789	2004.338655	0.910860	-0.023910	2.668114
145.660502	2015.388795	0.915865	-0.023982	2.674234
146.201613	2026.391591	0.920869	-0.024086	2.680344
146.707444	2037.405009	0.925874	-0.024184	2.686439
147.189613	2048.442395	0.930879	-0.024277	2.692529
147.628781	2059.410773	0.935884	-0.024362	2.698560
148.311674	2070.448497	0.940888	-0.024493	2.704657
148.659731	2081.479395	0.945893	-0.024561	2.710679
149.117786	2092.497731	0.950898	-0.024650	2.716700
149.563144	2103.533483	0.955902	-0.024736	2.722715
149.789050	2114.547387	0.960907	-0.024781	2.728667
150.210611	2125.570251	0.965912	-0.024863	2.734644
150.652990	2136.569149	0.970917	-0.024949	2.740599
151.154133	2147.598711	0.975921	-0.025045	2.746567
151.750791	2158.608298	0.980926	-0.025160	2.752526
152.046910	2169.635951	0.985931	-0.025218	2.758433
152.472198	2180.661966	0.990936	-0.025301	2.764347
152.719792	2191.709736	0.995940	-0.025350	2.770231
153.271169	2202.665162	1.000945	-0.025456	2.776103
154.051539	2213.683447	1.005950	-0.025606	2.782034
154.584671	2224.733667	1.010954	-0.025708	2.787928
154.840386	2235.763770	1.015959	-0.025759	2.793754
155.188223	2246.803497	1.020964	-0.025827	2.799587
155.787325	2257.753895	1.025969	-0.025942	2.805403
156.567482	2268.805292	1.030973	-0.026091	2.811288
157.040365	2279.816241	1.035978	-0.026183	2.817089
157.571578	2290.872748	1.040983	-0.026285	2.822912
158.056246	2301.847651	1.045988	-0.026379	2.828673
158.612345	2312.889343	1.050992	-0.026486	2.834468
159.049169	2323.901482	1.055997	-0.026571	2.840217
159.499099	2334.939704	1.061002	-0.026658	2.845970
159.848918	2345.955628	1.066006	-0.026726	2.851683
160.396921	2356.945800	1.071011	-0.026832	2.857404
160.892735	2367.975332	1.076016	-0.026927	2.863124
161.426685	2379.016401	1.081021	-0.027030	2.868845
161.696548	2390.013489	1.086025	-0.027084	2.874490
163.064967	2400.969342	1.091030	-0.027343	2.880275
163.502277	2412.075579	1.096035	-0.027428	2.885979
164.298682	2423.077613	1.101039	-0.027580	2.891675
164.563140	2434.112432	1.106044	-0.027632	2.897294
165.129112	2445.099683	1.111049	-0.027741	2.902924
165.689189	2456.120663	1.116054	-0.027849	2.908559
166.401419	2467.149563	1.121058	-0.027986	2.914211
166.898370	2478.174778	1.126063	-0.028082	2.919816
167.504338	2489.181674	1.131068	-0.028198	2.925418
167.985548	2500.226467	1.136073	-0.028291	2.931009
168.342906	2511.241590	1.141077	-0.028361	2.936556
168.737212	2522.223405	1.146082	-0.028438	2.942082
169.274723	2533.275318	1.151087	-0.028541	2.947653
169.611745	2544.295495	1.156091	-0.028607	2.953168
170.095731	2555.324331	1.161096	-0.028701	2.958698
170.561958	2566.296862	1.166101	-0.028791	2.964188
171.147242	2577.345528	1.171106	-0.028903	2.969723
171.665201	2588.349461	1.176110	-0.029003	2.975215
172.145115	2599.381351	1.181115	-0.029096	2.980705
172.637142	2610.384584	1.186120	-0.029191	2.986172
173.215800	2621.421391	1.191125	-0.029302	2.991659
173.603666	2632.427159	1.196129	-0.029378	2.997092
173.883650	2643.467197	1.201134	-0.029433	3.002516
174.335052	2654.473444	1.206139	-0.029521	3.007939
174.840352	2665.476165	1.211143	-0.029618	3.013359
175.127019	2676.524874	1.216148	-0.029675	3.018758
175.578068	2687.513456	1.221153	-0.029762	3.024143
175.957143	2698.551430	1.226158	-0.029836	3.029532
176.690856	2709.543597	1.231162	-0.029976	3.034940
177.096122	2720.592656	1.236167	-0.030055	3.040318
177.608675	2731.584850	1.241172	-0.030154	3.045675
178.095228	2742.649004	1.246177	-0.030248	3.051053
178.511068	2753.614662	1.251181	-0.030329	3.056364
178.875378	2764.651133	1.256186	-0.030400	3.061692
179.432593	2775.655115	1.261191	-0.030507	3.067023
179.742262	2786.688110	1.266195	-0.030568	3.072323
180.144835	2797.718840	1.271200	-0.030646	3.077626
180.391919	2808.739449	1.276205	-0.030695	3.082893
180.692132	2819.767395	1.281210	-0.030754	3.088162
181.155992	2830.740984	1.286214	-0.030844	3.093419
181.567932	2841.775552	1.291219	-0.030924	3.098689
182.056695	2852.790097	1.296224	-0.031019	3.103951
182.340788	2863.848404	1.301228	-0.031075	3.109196
182.711406	2874.813750	1.306233	-0.031147	3.114400
183.345678	2885.836083	1.311238	-0.031269	3.119659
183.726069	2896.872329	1.316243	-0.031343	3.124880
184.164688	2907.902308	1.321247	-0.031428	3.130098
184.196635	2918.920630	1.326252	-0.031437	3.135245
184.845394	2929.908914	1.331257	-0.031561	3.140455
185.052768	2940.948103	1.336262	-0.031603	3.145619
185.680612	2951.916859	1.341266	-0.031723	3.150799
186.423346	2962.957654	1.346271	-0.031865	3.156019
186.889952	2973.987511	1.351276	-0.031956	3.161188
187.121964	2985.013129	1.356280	-0.032002	3.166315
187.610587	2996.015207	1.361285	-0.032096	3.171457
187.931904	3007.037600	1.366290	-0.032159	3.176578
188.451644	3018.041423	1.371295	-0.032259	3.181708
188.708644	3029.103207	1.376299	-0.032310	3.186822
188.956703	3040.113379	1.381304	-0.032360	3.191902
189.097955	3051.112278	1.386309	-0.032389	3.196955
189.673456	3062.118373	1.391314	-0.032500	3.202061
190.115198	3073.156039	1.396318	-0.032585	3.207155
190.547979	3084.158060	1.401323	-0.032669	3.212224
191.015468	3095.158942	1.406328	-0.032760	3.217288
191.512835	3106.193785	1.411332	-0.032856	3.222364
191.815817	3117.211649	1.416337	-0.032915	3.227399
192.379495	3128.213307	1.421342	-0.033024	3.232452
192.795995	3139.239880	1.426347	-0.033105	3.237489
193.299739	3150.259651	1.431351	-0.033202	3.242527
193.749829	3161.284753	1.436356	-0.033289	3.247552
194.016827	3172.295910	1.441361	-0.033342	3.252540
194.097397	3183.327621	1.446366	-0.033360	3.257504
194.532557	3194.328993	1.451370	-0.033444	3.262494
194.827681	3205.371683	1.456375	-0.033502	3.267476
195.122236	3216.372985	1.461380	-0.033560	3.272432
195.533783	3227.380238	1.466384	-0.033640	3.277398
195.964855	3238.387113	1.471389	-0.033724	3.282358
196.463404	3249.412898	1.476394	-0.033820	3.287328
197.024554	3260.428902	1.481399	-0.033928	3.292294
197.652213	3271.429095	1.486403	-0.034049	3.297253
198.305957	3282.451763	1.491408	-0.034174	3.302219
198.725086	3293.486252	1.496413	-0.034255	3.307152
199.006078	3304.520938	1.501417	-0.034311	3.312061
199.422021	3315.496483	1.506422	-0.034392	3.316953
199.872385	3326.521472	1.511427	-0.034479	3.321864
200.565477	3337.553555	1.516432	-0.034612	3.326801
200.969487	3348.569107	1.521436	-0.034690	3.331687
201.158952	3359.586243	1.526441	-0.034728	3.336540
201.659731	3370.577504	1.531446	-0.034825	3.341413
201.988960	3381.632200	1.536451	-0.034890	3.346286
202.409656	3392.621761	1.541455	-0.034971	3.351134
202.799629	3403.655643	1.546460	-0.035047	3.355991
203.375643	3414.647185	1.551465	-0.035158	3.360844
203.784471	3425.696336	1.556469	-0.035237	3.365696
204.275822	3436.689741	1.561474	-0.035332	3.370526
204.712266	3447.703954	1.566479	-0.035417	3.375351
205.324028	3458.713481	1.571484	-0.035534	3.380189
205.628382	3469.765251	1.576488	-0.035594	3.385000
206.053490	3480.780510	1.581493	-0.035677	3.389804
206.212867	3491.785103	1.586498	-0.035709	3.394564
206.817960	3502.795882	1.591503	-0.035826	3.399373
206.996694	3513.838217	1.596507	-0.035862	3.404138
207.380749	3524.836209	1.601512	-0.035937	3.408902
207.434406	3535.862217	1.606517	-0.035950	3.413632
207.855684	3546.843942	1.611521	-0.036031	3.418380
208.238120	3557.866731	1.616526	-0.036106	3.423134
208.913679	3568.876789	1.621531	-0.036235	3.427911
209.364626	3579.923173	1.626536	-0.036323	3.432670
209.598984	3590.933531	1.631540	-0.036369	3.437381
210.170582	3601.922768	1.636545	-0.036479	3.442117
210.720811	3612.960088	1.641550	-0.036585	3.446863
211.137820	3623.975359	1.646555	-0.036666	3.451578
211.299129	3635.023276	1.651559	-0.036699	3.456271
211.720260	3645.998678	1.656564	-0.036781	3.460957
212.187456	3657.024837	1.661569	-0.036871	3.465663
212.789656	3668.030880	1.666573	-0.036987	3.470370
213.348440	3679.047254	1.671578	-0.037095	3.475069
213.590787	3690.081668	1.676583	-0.037143	3.479734
214.251172	3701.094985	1.681588	-0.037270	3.484431
214.624396	3712.114997	1.686592	-0.037342	3.489091
215.146866	3723.098172	1.691597	-0.037443	3.493747
215.611392	3734.138448	1.696602	-0.037533	3.498414
216.086034	3745.146235	1.701606	-0.037625	3.503062
216.437212	3756.186181	1.706611	-0.037693	3.507703
216.901693	3767.181019	1.711616	-0.037783	3.512332
217.320662	3778.208410	1.716621	-0.037865	3.516963
217.687742	3789.224913	1.721625	-0.037936	3.521578
217.909859	3800.252524	1.726630	-0.037981	3.526175
218.280527	3811.259062	1.731635	-0.038053	3.530773
218.523941	3822.273140	1.736640	-0.038101	3.535355
218.978454	3833.286336	1.741644	-0.038189	3.539954
219.271315	3844.310157	1.746649	-0.038247	3.544533
219.763368	3855.303932	1.751654	-0.038342	3.549115
219.865694	3866.358038	1.756658	-0.038364	3.553674
220.380053	3877.341497	1.761663	-0.038463	3.558243
220.650509	3888.371558	1.766668	-0.038517	3.562798
221.013876	3899.394104	1.771673	-0.038588	3.567355
221.384911	3910.388563	1.776677	-0.038660	3.571895
221.792316	3921.412071	1.781682	-0.038739	3.576445
222.133206	3932.427219	1.786687	-0.038806	3.580978
222.418563	3943.443889	1.791692	-0.038862	3.585501
222.837008	3954.444577	1.796696	-0.038943	3.590025
223.347485	3965.484156	1.801701	-0.039042	3.594569
223.553336	3976.505456	1.806706	-0.039083	3.599067
223.786172	3987.527392	1.811710	-0.039130	3.603563
224.236892	3998.528532	1.816715	-0.039217	3.608068
224.761243	4009.525056	1.821720	-0.039318	3.612574
225.076598	4020.554098	1.826725	-0.039380	3.617064
225.571094	4031.558189	1.831729	-0.039475	3.621558
225.867646	4042.601651	1.836734	-0.039534	3.626041
226.200166	4053.576595	1.841739	-0.039599	3.630494
226.436655	4064.637291	1.846744	-0.039646	3.634966
226.788700	4075.630776	1.851748	-0.039715	3.639418
227.116194	4086.670210	1.856753	-0.039779	3.643881
227.582923	4097.695402	1.861758	-0.039869	3.648346
227.680407	4108.755087	1.866762	-0.039890	3.652782
228.054311	4119.732250	1.871767	-0.039963	3.657207
228.376788	4130.752190	1.876772	-0.040026	3.661639
228.860922	4141.787289	1.881777	-0.040120	3.666089
229.177922	4152.790534	1.886781	-0.040182	3.670503
229.716752	4163.788575	1.891786	-0.040286	3.674932
230.010252	4174.820405	1.896791	-0.040344	3.679344
230.463281	4185.845373	1.901795	-0.040432	3.683765
230.586761	4196.865812	1.906800	-0.040458	3.688144
231.062523	4207.851940	1.911805	-0.040550	3.692541
231.495016	4218.875482	1.916810	-0.040633	3.696942
231.765909	4229.889645	1.921814	-0.040687	3.701318
232.064575	4240.917797	1.926819	-0.040746	3.705698
232.402341	4251.935639	1.931824	-0.040812	3.710072
232.643213	4262.945815	1.936829	-0.040860	3.714427
233.322225	4273.939272	1.941833	-0.040990	3.718816
233.429047	4285.014559	1.946838	-0.041013	3.723173
233.887725	4295.993773	1.951843	-0.041101	3.727524
234.097569	4307.004093	1.956847	-0.041144	3.731856
234.580218	4318.021836	1.961852	-0.041237	3.736213
234.637119	4329.052026	1.966857	-0.041250	3.740527
235.067999	4340.056548	1.971862	-0.041334	3.744864
