Wed Nov 23 17:12:02 2022

Number of Points = 2200
Depth (nm)	Load (µN)	Time (s)	Depth (V)	Load (V)
-0.741798	1.270652	0.000000	0.050124	0.909642
0.000000	7.346495	0.005005	0.049984	0.919908
0.809328	16.268148	0.010009	0.049830	0.934614
1.796160	26.750139	0.015014	0.049642	0.951621
2.741389	37.750427	0.020019	0.049462	0.969097
3.509689	48.940655	0.025024	0.049315	0.986448
4.379909	60.084390	0.030028	0.049149	1.003486
4.894243	71.332824	0.035033	0.049049	1.020200
5.418960	82.515009	0.040038	0.048948	1.036554
6.003475	93.654465	0.045043	0.048836	1.052625
6.605139	104.820302	0.050047	0.048720	1.068500
6.920879	116.011034	0.055052	0.048658	1.084031
7.418900	127.150953	0.060057	0.048562	1.099365
7.848336	138.254989	0.065061	0.048479	1.114406
8.814950	149.223599	0.070066	0.048295	1.129328
13.181932	159.718049	0.075071	0.047472	1.145058
13.974164	171.410182	0.080076	0.047321	1.160423
17.618117	182.017233	0.085080	0.046635	1.175540
18.824832	193.604648	0.090085	0.046405	1.190568
20.146673	204.770388	0.095090	0.046154	1.204943
21.363678	215.907865	0.100094	0.045923	1.219067
22.393490	227.055289	0.105099	0.045727	1.232958
23.519585	238.151577	0.110104	0.045513	1.246674
24.612811	249.254458	0.115109	0.045305	1.260234
25.776940	260.331060	0.120113	0.045084	1.273649
26.751052	271.449966	0.125118	0.044899	1.286892
28.029693	282.530635	0.130123	0.044656	1.300082
29.082735	293.647299	0.135128	0.044456	1.313087
30.238681	304.699611	0.140132	0.044236	1.325933
30.932718	315.862767	0.145137	0.044103	1.338593
32.184217	326.845798	0.150142	0.043866	1.351158
32.907927	338.000397	0.155146	0.043727	1.363584
33.955571	349.051416	0.160151	0.043528	1.375913
34.551479	360.185613	0.165156	0.043413	1.388046
35.845309	371.143489	0.170161	0.043168	1.400155
36.882562	382.247074	0.175165	0.042970	1.412213
37.630347	393.381319	0.180170	0.042827	1.424093
38.468385	404.424150	0.185175	0.042667	1.435813
39.684960	415.434193	0.190180	0.042436	1.447544
40.790050	426.530066	0.195184	0.042226	1.459226
41.687121	437.617851	0.200189	0.042055	1.470731
42.391958	448.712761	0.205194	0.041920	1.482084
43.163023	459.777765	0.210198	0.041773	1.493345
44.065197	470.800507	0.215203	0.041601	1.504525
45.129443	481.819263	0.220208	0.041398	1.515676
46.278746	492.882126	0.225213	0.041180	1.526817
47.083470	504.031894	0.230217	0.041026	1.537841
47.523147	515.098161	0.235222	0.040941	1.548581
48.442982	526.093734	0.240227	0.040765	1.559344
49.205891	537.153742	0.245232	0.040620	1.570040
50.330219	548.171282	0.250236	0.040406	1.580744
51.154623	559.261864	0.255241	0.040248	1.591344
51.874446	570.348158	0.260246	0.040111	1.601835
52.447738	581.402321	0.265250	0.040000	1.612180
53.634004	592.390568	0.270255	0.039775	1.622598
54.531823	603.442492	0.275260	0.039604	1.632913
55.313689	614.538782	0.280265	0.039454	1.643166
56.091825	625.564541	0.285269	0.039306	1.653291
56.840708	636.635228	0.290274	0.039162	1.663384
57.556897	647.687703	0.295279	0.039025	1.673390
58.612175	658.656263	0.300283	0.038824	1.683367
59.489099	669.752688	0.305288	0.038657	1.693342
60.333530	680.816868	0.310293	0.038496	1.703220
61.080121	691.841155	0.315298	0.038353	1.712977
61.897246	702.911794	0.320302	0.038197	1.722738
62.390766	713.975666	0.325307	0.038102	1.732342
63.339903	724.979597	0.330312	0.037921	1.741977
63.793202	736.065725	0.335317	0.037833	1.751481
64.691546	747.065029	0.340321	0.037662	1.760993
65.218345	758.146513	0.345326	0.037560	1.770412
65.712743	769.205137	0.350331	0.037465	1.779752
66.433382	780.195181	0.355335	0.037327	1.789053
67.408113	791.209003	0.360340	0.037141	1.798398
67.815743	802.318155	0.365345	0.037062	1.807609
68.657362	813.326294	0.370350	0.036901	1.816815
68.993627	824.407992	0.375354	0.036835	1.825891
69.739092	835.409402	0.380359	0.036693	1.834972
70.398928	846.445007	0.385364	0.036566	1.844012
70.983855	857.488661	0.390369	0.036454	1.852993
71.544876	868.553512	0.395373	0.036346	1.861940
72.132094	879.575338	0.400378	0.036233	1.870818
72.788102	890.595904	0.405383	0.036107	1.879671
73.262285	901.665801	0.410387	0.036015	1.888471
74.102020	912.653561	0.415392	0.035855	1.897266
74.716940	923.713756	0.420397	0.035737	1.906015
75.006008	934.774576	0.425402	0.035680	1.914637
75.722646	945.772441	0.430406	0.035543	1.923286
76.307654	956.804556	0.435411	0.035430	1.931887
77.635119	967.756581	0.440416	0.035178	1.940584
78.326635	978.869405	0.445421	0.035046	1.949198
78.876745	989.937917	0.450425	0.034940	1.957702
79.101474	1001.006067	0.455430	0.034895	1.966085
79.626074	1011.981165	0.460435	0.034794	1.974440
80.239115	1023.016552	0.465439	0.034676	1.982828
81.266494	1033.997890	0.470444	0.034481	1.991245
81.759805	1045.121833	0.475449	0.034385	1.999596
82.240546	1056.157669	0.480454	0.034292	2.007844
82.603211	1067.199479	0.485458	0.034222	2.016033
83.191929	1078.198082	0.490463	0.034108	2.024214
83.844341	1089.195559	0.495468	0.033983	2.032377
84.392820	1100.288076	0.500472	0.033878	2.040549
84.695848	1111.300991	0.505477	0.033818	2.048571
85.070042	1122.363992	0.510482	0.033745	2.056615
85.363020	1133.367593	0.515487	0.033687	2.064565
86.618798	1144.280381	0.520491	0.033449	2.072654
87.325323	1155.426037	0.525496	0.033314	2.080743
88.030833	1166.434467	0.530501	0.033179	2.088704
88.373204	1177.498834	0.535506	0.033112	2.096586
88.855176	1188.478411	0.540510	0.033018	2.104412
89.778696	1199.479650	0.545515	0.032842	2.112330
90.374043	1210.576643	0.550520	0.032728	2.120206
91.428487	1221.506721	0.555524	0.032527	2.128046
92.718649	1232.516053	0.560529	0.032283	2.135966
93.693645	1243.605137	0.565534	0.032097	2.143838
94.343908	1254.674378	0.570539	0.031972	2.151591
94.756625	1265.721774	0.575543	0.031892	2.159247
95.539195	1276.697395	0.580548	0.031742	2.166911
96.175654	1287.766898	0.585553	0.031620	2.174579
96.650556	1298.804004	0.590558	0.031528	2.182160
97.057498	1309.824059	0.595562	0.031449	2.189688
97.623868	1320.854772	0.600567	0.031340	2.197234
98.159992	1331.853878	0.605572	0.031237	2.204725
99.055396	1342.864629	0.610576	0.031066	2.212280
99.413815	1353.953035	0.615581	0.030996	2.219739
100.179685	1364.906464	0.620586	0.030850	2.227175
100.659101	1376.000753	0.625591	0.030757	2.234616
101.226825	1387.009457	0.630595	0.030648	2.241994
101.853627	1398.028681	0.635600	0.030528	2.249369
102.321055	1409.085314	0.640605	0.030437	2.256708
102.688134	1420.092538	0.645610	0.030366	2.263969
103.083368	1431.140015	0.650614	0.030289	2.271239
103.687197	1442.103146	0.655619	0.030173	2.278477
104.716636	1453.119140	0.660624	0.029977	2.285817
105.149843	1464.182729	0.665628	0.029893	2.293036
105.800865	1475.209249	0.670633	0.029768	2.300255
106.079479	1486.273238	0.675638	0.029713	2.307395
106.626165	1497.276569	0.680643	0.029607	2.314532
107.026951	1508.292768	0.685647	0.029530	2.321624
107.378484	1519.348595	0.690652	0.029461	2.328709
107.804835	1530.337900	0.695657	0.029378	2.335746
108.270012	1541.396521	0.700661	0.029288	2.342813
108.739999	1552.385943	0.705666	0.029197	2.349817
109.333315	1563.396489	0.710671	0.029083	2.356838
110.063231	1574.418873	0.715676	0.028943	2.363874
110.704611	1585.452832	0.720680	0.028820	2.370878
110.955206	1596.541830	0.725685	0.028771	2.377815
111.320651	1607.506767	0.730690	0.028699	2.384678
111.997324	1618.500200	0.735695	0.028570	2.391603
112.618081	1629.578761	0.740699	0.028450	2.398548
112.828247	1640.590798	0.745704	0.028408	2.405349
113.635297	1651.584279	0.750709	0.028254	2.412240
114.120205	1662.653082	0.755713	0.028160	2.419092
114.649850	1673.636826	0.760718	0.028058	2.425882
115.088719	1684.684523	0.765723	0.027973	2.432673
115.514221	1695.706153	0.770728	0.027891	2.439427
116.092239	1706.715999	0.775732	0.027779	2.446186
116.678067	1717.756687	0.780737	0.027667	2.452945
117.211706	1728.757482	0.785742	0.027564	2.459652
117.702719	1739.800941	0.790747	0.027469	2.466357
118.137357	1750.813980	0.795751	0.027385	2.473015
118.709407	1761.854009	0.800756	0.027275	2.479697
118.994797	1772.855902	0.805761	0.027218	2.486284
119.869640	1783.864930	0.810765	0.027052	2.492970
120.501236	1794.895527	0.815770	0.026930	2.499605
121.023774	1805.926512	0.820775	0.026830	2.506201
121.503258	1816.978152	0.825780	0.026737	2.512783
121.828288	1827.994859	0.830784	0.026673	2.519298
122.193009	1838.996122	0.835789	0.026602	2.525795
122.742227	1850.031107	0.840794	0.026496	2.532330
123.146066	1861.038375	0.845799	0.026418	2.538804
123.636151	1872.056132	0.850803	0.026323	2.545283
124.132347	1883.101501	0.855808	0.026227	2.551764
125.502414	1893.892469	0.860813	0.025967	2.558243
131.461618	1904.657911	0.865817	0.024847	2.565542
132.112964	1916.178342	0.870822	0.024721	2.572270
132.652556	1927.218361	0.875827	0.024617	2.578685
133.094788	1938.220444	0.880832	0.024532	2.585045
133.302170	1949.224398	0.885836	0.024490	2.591348
134.125239	1960.213811	0.890841	0.024333	2.597739
134.915540	1971.211862	0.895846	0.024182	2.604113
135.932550	1982.249374	0.900850	0.023988	2.610534
136.478025	1993.303692	0.905855	0.023883	2.616864
136.909336	2004.335885	0.910860	0.023800	2.623145
137.309178	2015.338305	0.915865	0.023722	2.629389
138.006723	2026.344683	0.920869	0.023588	2.635673
138.223275	2037.422842	0.925874	0.023545	2.641897
138.807229	2048.406096	0.930879	0.023433	2.648118
139.229866	2059.402651	0.935884	0.023351	2.654303
139.813931	2070.419724	0.940888	0.023238	2.660514
140.152759	2081.470079	0.945893	0.023172	2.666685
140.691432	2092.468846	0.950898	0.023068	2.672849
141.008722	2103.478807	0.955902	0.023006	2.678965
141.841403	2114.483530	0.960907	0.022847	2.685155
142.239327	2125.560634	0.965912	0.022770	2.691294
142.595349	2136.544187	0.970917	0.022700	2.697360
143.008568	2147.575529	0.975921	0.022620	2.703449
143.489029	2158.596681	0.980926	0.022527	2.709530
144.115797	2169.582071	0.985931	0.022407	2.715603
144.736606	2180.631662	0.990936	0.022287	2.721696
145.159948	2191.664968	0.995940	0.022205	2.727733
145.490100	2202.690019	1.000945	0.022140	2.733736
146.083544	2213.673181	1.005950	0.022026	2.739747
146.515279	2224.719235	1.010954	0.021943	2.745752
146.979834	2235.726641	1.015959	0.021853	2.751729
147.617281	2246.747012	1.020964	0.021730	2.757728
148.117003	2257.760364	1.025969	0.021634	2.763687
148.157731	2268.852005	1.030973	0.021624	2.769599
148.947019	2279.760896	1.035978	0.021473	2.775525
149.521148	2290.821472	1.040983	0.021362	2.781483
149.684242	2301.875884	1.045988	0.021329	2.787357
150.274488	2312.878004	1.050992	0.021215	2.793261
150.812859	2323.859189	1.055997	0.021112	2.799134
151.340566	2334.913209	1.061002	0.021010	2.805030
151.788827	2345.945545	1.066006	0.020923	2.810889
152.159705	2356.969975	1.071011	0.020851	2.816719
152.597522	2367.948450	1.076016	0.020766	2.822525
153.258361	2378.982204	1.081021	0.020639	2.828382
153.790301	2390.000285	1.086025	0.020537	2.834199
154.462941	2401.015539	1.091030	0.020408	2.840025
154.803772	2412.045879	1.096035	0.020341	2.845793
155.513788	2423.077392	1.101039	0.020205	2.851609
155.913692	2434.072370	1.106044	0.020127	2.857345
156.463674	2445.089750	1.111049	0.020021	2.863104
156.697717	2456.152556	1.116054	0.019975	2.868825
157.166841	2467.165329	1.121058	0.019884	2.874546
157.437971	2478.167482	1.126063	0.019830	2.880219
157.899671	2489.191197	1.131068	0.019741	2.885922
158.331201	2500.215879	1.136073	0.019657	2.891609
158.677201	2511.229435	1.141077	0.019590	2.897266
159.105691	2522.242100	1.146082	0.019506	2.902924
159.499430	2533.269516	1.151087	0.019430	2.908573
159.794304	2544.274938	1.156091	0.019372	2.914184
160.420733	2555.290950	1.161096	0.019252	2.919841
160.757207	2566.312789	1.166101	0.019186	2.925445
161.149454	2577.367729	1.171106	0.019109	2.931064
161.267412	2588.361701	1.176110	0.019085	2.936599
162.010936	2599.340741	1.181115	0.018942	2.942212
162.431027	2610.375022	1.186120	0.018861	2.947792
162.734608	2621.441696	1.191125	0.018801	2.953360
162.988279	2632.439983	1.196129	0.018751	2.958876
163.487143	2643.438744	1.201134	0.018654	2.964419
163.892943	2654.472392	1.206139	0.018575	2.969955
164.343302	2665.486464	1.211143	0.018488	2.975477
165.000619	2676.475324	1.216148	0.018362	2.981007
165.668706	2687.508686	1.221153	0.018234	2.986551
165.946362	2698.549250	1.226158	0.018179	2.992029
166.256453	2709.557988	1.231162	0.018118	2.997487
166.605219	2720.564020	1.236167	0.018050	3.002939
167.169640	2731.593764	1.241172	0.017942	3.008424
167.566420	2742.601399	1.246177	0.017864	3.013864
167.967491	2753.637682	1.251181	0.017786	3.019308
168.541721	2764.621805	1.256186	0.017676	3.024743
168.933291	2775.686915	1.261191	0.017600	3.030180
169.366140	2786.676913	1.266195	0.017516	3.035577
169.790081	2797.719287	1.271200	0.017433	3.040989
170.061470	2808.716960	1.276205	0.017380	3.046347
170.444752	2819.749395	1.281210	0.017305	3.051728
170.911314	2830.738602	1.286214	0.017215	3.057091
171.527207	2841.755034	1.291219	0.017097	3.062479
172.195917	2852.759536	1.296224	0.016968	3.067859
172.489048	2863.834658	1.301228	0.016911	3.073210
172.797713	2874.820959	1.306233	0.016850	3.078511
173.364244	2885.842124	1.311238	0.016741	3.083856
173.728467	2896.861850	1.316243	0.016670	3.089163
174.086315	2907.885090	1.321247	0.016600	3.094461
174.510295	2918.888286	1.326252	0.016518	3.099749
174.799350	2929.949366	1.331257	0.016461	3.105037
175.135084	2940.935978	1.336262	0.016395	3.110288
175.377585	2951.952545	1.341266	0.016347	3.115530
175.724331	2962.981648	1.346271	0.016279	3.120784
176.330518	2973.961148	1.351276	0.016163	3.126042
176.668025	2985.017698	1.356280	0.016097	3.131290
177.079347	2996.023523	1.361285	0.016017	3.136515
177.342679	3007.034348	1.366290	0.015964	3.141713
177.800249	3018.056023	1.371295	0.015876	3.146935
178.262386	3029.069072	1.376299	0.015786	3.152144
178.869533	3040.088448	1.381304	0.015670	3.157368
179.125173	3051.106918	1.386309	0.015619	3.162534
179.516486	3062.155714	1.391314	0.015543	3.167724
179.872941	3073.131594	1.396318	0.015473	3.172868
180.336592	3084.154352	1.401323	0.015384	3.178039
180.815776	3095.148472	1.406328	0.015291	3.183190
181.313122	3106.219195	1.411332	0.015195	3.188371
181.657266	3117.191138	1.416337	0.015128	3.193477
182.077484	3128.256586	1.421342	0.015046	3.198628
182.281791	3139.251498	1.426347	0.015005	3.203709
182.590667	3150.280007	1.431351	0.014944	3.208812
182.870182	3161.276268	1.436356	0.014889	3.213887
183.415086	3172.286357	1.441361	0.014784	3.218996
183.761070	3183.311907	1.446366	0.014717	3.224078
184.048867	3194.350804	1.451370	0.014660	3.229150
184.349136	3205.331696	1.456375	0.014601	3.234189
184.971034	3216.363627	1.461380	0.014481	3.239286
185.616682	3227.354406	1.466384	0.014357	3.244359
186.054207	3238.420953	1.471389	0.014273	3.249431
186.280793	3249.401609	1.476394	0.014227	3.254429
186.815177	3260.438810	1.481399	0.014124	3.259484
187.184582	3271.446883	1.486403	0.014052	3.264497
187.850790	3282.450893	1.491408	0.013925	3.269539
188.369801	3293.484895	1.496413	0.013824	3.274567
188.567813	3304.512114	1.501417	0.013785	3.279543
188.935119	3315.509928	1.506422	0.013713	3.284520
189.371863	3326.542638	1.511427	0.013628	3.289514
189.900574	3337.534830	1.516432	0.013526	3.294494
190.327501	3348.579529	1.521436	0.013443	3.299477
190.656228	3359.581688	1.526441	0.013379	3.304421
190.855415	3370.629815	1.531446	0.013339	3.309361
191.175712	3381.617295	1.536451	0.013276	3.314282
191.840622	3392.629859	1.541455	0.013149	3.319250
192.135327	3403.635589	1.546460	0.013091	3.324162
192.439366	3414.699045	1.551465	0.013031	3.329092
192.790335	3425.660483	1.556469	0.012962	3.333976
193.187442	3436.706773	1.561474	0.012885	3.338896
193.568962	3447.714548	1.566479	0.012811	3.343790
194.168613	3458.731221	1.571484	0.012695	3.348708
194.487801	3469.751300	1.576488	0.012633	3.353584
195.119928	3480.764379	1.581493	0.012512	3.358490
195.444107	3491.779544	1.586498	0.012448	3.363351
195.840683	3502.809897	1.591503	0.012371	3.368220
196.305242	3513.784516	1.596507	0.012281	3.373066
196.819796	3524.857409	1.601512	0.012182	3.377954
197.155571	3535.841904	1.606517	0.012116	3.382775
197.666625	3546.872375	1.611521	0.012017	3.387630
197.815883	3557.896594	1.616526	0.011987	3.392431
198.356076	3568.890710	1.621531	0.011882	3.397260
198.773583	3579.888328	1.626536	0.011801	3.402069
199.500335	3590.929868	1.631540	0.011662	3.406927
199.665956	3601.956023	1.636545	0.011628	3.411703
199.929989	3612.992139	1.641550	0.011576	3.416489
200.109912	3623.980968	1.646555	0.011540	3.421238
200.551918	3634.996025	1.651559	0.011454	3.426023
200.972847	3646.005814	1.656564	0.011372	3.430796
201.315116	3657.039303	1.661569	0.011305	3.435564
201.428346	3668.059895	1.666573	0.011281	3.440291
201.888601	3679.085990	1.671578	0.011192	3.445056
202.321354	3690.074612	1.676583	0.011108	3.449795
202.681354	3701.087854	1.681588	0.011038	3.454529
203.098243	3712.105989	1.686592	0.010957	3.459266
203.473118	3723.164442	1.691597	0.010884	3.464008
203.761256	3734.137845	1.696602	0.010827	3.468697
204.081633	3745.177966	1.701606	0.010764	3.473412
204.366185	3756.164232	1.706611	0.010708	3.478093
204.906283	3767.195963	1.711616	0.010604	3.482817
205.224959	3778.200257	1.716621	0.010542	3.487497
205.596145	3789.227489	1.721625	0.010469	3.492187
205.970545	3800.243031	1.726630	0.010396	3.496866
206.274809	3811.254198	1.731635	0.010337	3.501528
206.601102	3822.278777	1.736640	0.010273	3.506192
207.215944	3833.279116	1.741644	0.010155	3.510873
207.579089	3844.302860	1.746649	0.010084	3.515529
207.973634	3855.320302	1.751654	0.010007	3.520179
208.332139	3866.343026	1.756658	0.009937	3.524821
208.677490	3877.375947	1.761663	0.009869	3.529460
209.035443	3888.358755	1.766668	0.009799	3.534073
209.523404	3899.414911	1.771673	0.009705	3.538725
209.598920	3910.414973	1.776677	0.009688	3.543301
209.852147	3921.449791	1.781682	0.009638	3.547906
210.088862	3932.407848	1.786687	0.009591	3.552471
210.538270	3943.448159	1.791692	0.009504	3.557087
211.002632	3954.444746	1.796696	0.009414	3.561682
211.499003	3965.495799	1.801701	0.009318	3.566296
211.842560	3976.493572	1.806706	0.009251	3.570866
212.075386	3987.523374	1.811710	0.009205	3.575430
212.625553	3998.484525	1.816715	0.009099	3.579995
213.241201	4009.575805	1.821720	0.008980	3.584615
213.443528	4020.549623	1.826725	0.008940	3.589135
213.899562	4031.606888	1.831729	0.008851	3.593712
214.203821	4042.597771	1.836734	0.008792	3.598239
214.804499	4053.600078	1.841739	0.008676	3.602797
215.470302	4064.590291	1.846744	0.008548	3.607351
216.022379	4075.641431	1.851748	0.008442	3.611912
216.243762	4086.651501	1.856753	0.008398	3.616415
216.696158	4097.707846	1.861758	0.008310	3.620956
216.834568	4108.732580	1.866762	0.008282	3.625444
217.396841	4119.734890	1.871767	0.008173	3.629963
217.822164	4130.764582	1.876772	0.008091	3.634473
218.295638	4141.777828	1.881777	0.007999	3.638975
218.515526	4152.801060	1.886781	0.007955	3.643449
218.855460	4163.848141	1.891786	0.007889	3.647940
219.157156	4174.803659	1.896791	0.007829	3.652384
219.875531	4185.819760	1.901795	0.007692	3.656891
220.392084	4196.849623	1.906800	0.007592	3.661377
220.583654	4207.909722	1.911805	0.007553	3.665835
220.857654	4218.872138	1.916810	0.007499	3.670257
221.291703	4229.925394	1.921814	0.007415	3.674726
221.681558	4240.898598	1.926819	0.007339	3.679154
222.399534	4251.944113	1.931824	0.007202	3.683639
222.714706	4262.973667	1.936829	0.007140	3.688071
222.988449	4273.972701	1.941833	0.007086	3.692480
223.289811	4284.967702	1.946838	0.007027	3.696886
223.736177	4295.997996	1.951843	0.006940	3.701315
224.094089	4307.014579	1.956847	0.006870	3.705724
224.309688	4318.046981	1.961852	0.006827	3.710120
224.695863	4329.049078	1.966857	0.006752	3.714515
225.072207	4340.053674	1.971862	0.006679	3.718906
225.315341	4351.092733	1.976866	0.006630	3.723291
225.793672	4362.077711	1.981871	0.006538	3.727674
226.148491	4373.108815	1.986876	0.006468	3.732057
226.498257	4384.127521	1.991881	0.006400	3.736429
226.597645	4395.139907	1.996885	0.006379	3.740768
226.986774	4406.156411	2.001890	0.006303	3.745134
227.329163	4417.151167	2.006895	0.006236	3.749480
