Wed Nov 23 18:47:16 2022

Number of Points = 2200
Depth (nm)	Load (µN)	Time (s)	Depth (V)	Load (V)
-1.571590	1.426520	0.000000	-0.010183	1.085577
0.000000	7.998940	0.005005	-0.010479	1.095197
1.022964	17.481836	0.010009	-0.010674	1.108321
2.030568	28.230010	0.015014	-0.010865	1.122938
2.720728	39.336138	0.020019	-0.010998	1.137676
3.437382	50.432589	0.025024	-0.011135	1.152226
4.067151	61.569925	0.030028	-0.011256	1.166605
4.895812	72.646235	0.035033	-0.011414	1.180824
5.321286	83.831973	0.040038	-0.011497	1.194825
5.754202	94.952964	0.045043	-0.011581	1.208589
6.403642	106.016340	0.050047	-0.011705	1.222224
7.063211	117.091872	0.055052	-0.011832	1.235726
7.517387	128.232421	0.060057	-0.011920	1.249070
8.089504	139.325081	0.065061	-0.012030	1.262268
8.498700	150.429918	0.070066	-0.012109	1.275274
8.809236	161.559546	0.075071	-0.012170	1.288135
9.154284	172.669041	0.080076	-0.012238	1.300861
9.554136	183.713456	0.085080	-0.012316	1.313413
9.988957	194.775341	0.090085	-0.012400	1.325879
10.426137	205.837179	0.095090	-0.012485	1.338230
10.715740	216.941022	0.100094	-0.012542	1.350454
11.198570	227.998790	0.105099	-0.012635	1.362595
11.654369	239.061946	0.110104	-0.012723	1.374624
12.050016	250.170412	0.115109	-0.012800	1.386573
12.298366	261.251453	0.120113	-0.012850	1.398335
25.536334	269.135160	0.125118	-0.015336	1.411559
34.234342	282.218758	0.130123	-0.016971	1.428307
34.876380	294.251955	0.135128	-0.017094	1.440834
35.699348	305.426076	0.140132	-0.017252	1.452453
36.717066	316.478660	0.145137	-0.017445	1.463927
37.449135	327.568811	0.150142	-0.017585	1.475247
38.307074	338.626642	0.155146	-0.017749	1.486493
39.308551	349.673571	0.160151	-0.017940	1.497694
40.047103	360.756497	0.165156	-0.018081	1.508754
40.697256	371.835749	0.170161	-0.018206	1.519699
41.566640	382.854098	0.175165	-0.018372	1.530583
42.363562	393.931988	0.180170	-0.018524	1.541421
43.190793	404.968859	0.185175	-0.018682	1.552155
44.129338	416.015221	0.190180	-0.018861	1.562861
45.104172	427.059656	0.195184	-0.019046	1.573503
46.179455	438.096809	0.200189	-0.019251	1.584100
46.885790	449.219244	0.205194	-0.019386	1.594584
47.607390	460.253806	0.210198	-0.019524	1.604923
48.751130	471.252300	0.215203	-0.019742	1.615299
49.401838	482.369219	0.220208	-0.019866	1.625557
50.331749	493.403062	0.225213	-0.020044	1.635765
50.981331	504.457046	0.230217	-0.020168	1.645839
51.720947	515.516592	0.235222	-0.020310	1.655884
52.366377	526.544845	0.240227	-0.020434	1.665811
53.274279	537.580364	0.245232	-0.020607	1.675767
54.000971	548.627928	0.250236	-0.020746	1.685618
54.940300	559.646473	0.255241	-0.020925	1.695452
55.743705	570.727156	0.260246	-0.021078	1.705240
56.560591	581.753073	0.265250	-0.021234	1.714929
57.348425	592.788212	0.270255	-0.021385	1.724563
58.315612	603.854766	0.275260	-0.021569	1.734223
59.199986	614.871304	0.280265	-0.021738	1.743762
59.867614	625.970988	0.285269	-0.021866	1.753255
60.256338	637.035933	0.290274	-0.021942	1.762586
61.045630	648.020599	0.295279	-0.022092	1.771917
62.037692	659.051276	0.300283	-0.022281	1.781296
63.114434	670.027345	0.305288	-0.022486	1.790604
63.621572	681.182893	0.310293	-0.022584	1.799848
64.525986	692.163297	0.315298	-0.022756	1.809015
65.324995	703.211413	0.320302	-0.022909	1.818160
66.049977	714.278936	0.325307	-0.023048	1.827254
66.821554	725.301120	0.330312	-0.023195	1.836279
67.612435	736.322082	0.335317	-0.023346	1.845264
68.367454	747.382310	0.340321	-0.023491	1.854226
69.115081	758.429105	0.345326	-0.023634	1.863133
69.765513	769.440047	0.350331	-0.023759	1.871942
70.648838	780.502276	0.355335	-0.023927	1.880812
71.570930	791.472695	0.360340	-0.024103	1.889580
72.310070	802.578009	0.365345	-0.024244	1.898362
73.064652	813.584243	0.370350	-0.024389	1.907031
73.907519	824.632042	0.375354	-0.024549	1.915716
74.239966	835.710881	0.380359	-0.024615	1.924250
75.144237	846.661891	0.385364	-0.024787	1.932800
76.037031	857.739395	0.390369	-0.024957	1.941404
76.860688	868.746349	0.395373	-0.025115	1.949898
77.514047	879.814340	0.400378	-0.025240	1.958357
78.252055	890.850761	0.405383	-0.025381	1.966778
78.821418	901.868715	0.410387	-0.025491	1.975106
79.740847	912.877127	0.415392	-0.025666	1.983480
80.587019	923.922487	0.420397	-0.025827	1.991828
81.539501	934.922604	0.425402	-0.026009	2.000134
82.163529	946.034564	0.430406	-0.026129	2.008404
82.753968	957.067719	0.435411	-0.026242	2.016574
83.221428	968.081303	0.440416	-0.026333	2.024667
83.787620	979.107986	0.445421	-0.026442	2.032761
84.561954	990.129308	0.450425	-0.026590	2.040870
85.552651	1001.110536	0.455430	-0.026778	2.048971
86.156074	1012.205012	0.460435	-0.026894	2.057026
86.832184	1023.240678	0.465439	-0.027024	2.065025
87.462943	1034.265862	0.470444	-0.027145	2.072975
88.183493	1045.293516	0.475449	-0.027283	2.080918
88.820725	1056.338082	0.480454	-0.027405	2.088821
89.626488	1067.341209	0.485458	-0.027559	2.096706
90.186815	1078.400155	0.490463	-0.027667	2.104542
90.848614	1089.415934	0.495468	-0.027794	2.112343
91.445859	1100.453335	0.500472	-0.027909	2.120114
92.301701	1111.429990	0.505477	-0.028072	2.127875
92.935973	1122.541295	0.510482	-0.028194	2.135649
93.373692	1133.534527	0.515487	-0.028279	2.143268
93.894227	1144.585762	0.520491	-0.028379	2.150918
94.487147	1155.591538	0.525496	-0.028493	2.158527
95.160083	1166.619181	0.530501	-0.028622	2.166142
95.913492	1177.618602	0.535506	-0.028766	2.173729
96.567111	1188.696401	0.540510	-0.028891	2.181319
97.312527	1199.675086	0.545515	-0.029034	2.188838
97.796685	1210.741548	0.550520	-0.029128	2.196330
98.515536	1221.756563	0.555524	-0.029265	2.203815
99.144324	1232.787748	0.560529	-0.029386	2.211265
99.793722	1243.803433	0.565534	-0.029511	2.218684
100.326687	1254.842318	0.570539	-0.029613	2.226067
100.856226	1265.897055	0.575543	-0.029715	2.233436
101.448188	1276.879566	0.580548	-0.029829	2.240746
102.071085	1287.922423	0.585553	-0.029949	2.248079
102.607633	1298.975235	0.590558	-0.030052	2.255375
103.217845	1309.967669	0.595562	-0.030169	2.262625
103.883976	1320.990783	0.600567	-0.030297	2.269883
104.511220	1332.009578	0.605572	-0.030418	2.277106
105.055856	1343.069307	0.610576	-0.030522	2.284315
105.800088	1354.039645	0.615581	-0.030665	2.291486
106.469145	1365.091232	0.620586	-0.030793	2.298671
107.158644	1376.107220	0.625591	-0.030925	2.305814
107.768781	1387.146629	0.630595	-0.031042	2.312934
108.572031	1398.171999	0.635600	-0.031196	2.320063
108.969053	1409.223618	0.640605	-0.031273	2.327101
109.501305	1420.250791	0.645610	-0.031376	2.334131
109.824272	1431.264472	0.650614	-0.031439	2.341088
110.616523	1442.232753	0.655619	-0.031590	2.348093
111.081959	1453.341408	0.660624	-0.031681	2.355096
111.881169	1464.296145	0.665628	-0.031833	2.362052
112.407775	1475.366623	0.670633	-0.031935	2.369003
112.808521	1486.383132	0.675638	-0.032013	2.375874
113.297542	1497.408662	0.680643	-0.032107	2.382749
113.858452	1508.429348	0.685647	-0.032215	2.389616
114.357155	1519.446796	0.690652	-0.032311	2.396448
114.844762	1530.490359	0.695657	-0.032406	2.403274
115.549361	1541.479606	0.700661	-0.032541	2.410091
116.181561	1552.505977	0.705666	-0.032662	2.416897
116.553290	1563.575558	0.710671	-0.032734	2.423658
116.912417	1574.570470	0.715676	-0.032805	2.430352
117.659806	1585.561241	0.720680	-0.032948	2.437102
118.194120	1596.631914	0.725685	-0.033051	2.443839
118.572953	1607.636668	0.730690	-0.033124	2.450488
119.261928	1618.645640	0.735695	-0.033256	2.457181
119.408020	1629.749129	0.740699	-0.033286	2.463807
120.202149	1640.644063	0.745704	-0.033438	2.470416
120.760634	1651.738922	0.750709	-0.033546	2.477081
121.157950	1662.774255	0.755713	-0.033623	2.483661
121.655357	1673.759304	0.760718	-0.033719	2.490214
122.231937	1684.804283	0.765723	-0.033830	2.496799
122.760089	1695.826550	0.770728	-0.033932	2.503344
123.274048	1706.846852	0.775732	-0.034031	2.509868
123.711076	1717.861843	0.780737	-0.034116	2.516358
124.120419	1728.904085	0.785742	-0.034195	2.522841
124.597893	1739.913855	0.790747	-0.034288	2.529302
125.288802	1750.904885	0.795751	-0.034420	2.535775
125.696253	1761.963009	0.800756	-0.034499	2.542217
126.397327	1772.974109	0.805761	-0.034633	2.548670
127.032788	1783.982315	0.810765	-0.034755	2.555093
127.496045	1795.017934	0.815770	-0.034845	2.561483
128.068760	1806.047101	0.820775	-0.034955	2.567874
128.615589	1817.090322	0.825780	-0.035061	2.574252
128.974608	1828.118100	0.830784	-0.035131	2.580571
129.500023	1839.105933	0.835789	-0.035232	2.586882
129.942002	1850.141146	0.840794	-0.035318	2.593189
130.460239	1861.131383	0.845799	-0.035418	2.599469
130.902042	1872.182273	0.850803	-0.035503	2.605755
131.452944	1883.172567	0.855808	-0.035609	2.612010
131.986338	1894.211491	0.860813	-0.035712	2.618275
132.429664	1905.230634	0.865817	-0.035798	2.624497
132.944271	1916.252679	0.870822	-0.035897	2.630719
133.351364	1927.286753	0.875827	-0.035976	2.636913
133.760240	1938.308360	0.880832	-0.036056	2.643086
134.351351	1949.296356	0.885836	-0.036170	2.649259
134.651688	1960.387545	0.890841	-0.036229	2.655422
135.406971	1971.315865	0.895846	-0.036373	2.661561
135.904884	1982.390221	0.900850	-0.036469	2.667721
136.459956	1993.383039	0.905855	-0.036576	2.673832
136.912976	2004.434043	0.910860	-0.036664	2.679943
137.713393	2015.390667	0.915865	-0.036817	2.686049
138.116007	2026.488614	0.920869	-0.036895	2.692148
138.560690	2037.475035	0.925874	-0.036981	2.698181
139.007144	2048.497620	0.930879	-0.037068	2.704220
139.491661	2059.489420	0.935884	-0.037161	2.710235
139.882942	2070.526916	0.940888	-0.037238	2.716246
140.385879	2081.557151	0.945893	-0.037335	2.722258
140.779618	2092.554633	0.950898	-0.037411	2.728220
141.162388	2103.599987	0.955902	-0.037486	2.734194
141.660239	2114.592899	0.960907	-0.037582	2.740145
142.156646	2125.597303	0.965912	-0.037678	2.746089
143.025153	2136.630215	0.970917	-0.037843	2.752098
143.414019	2147.655699	0.975921	-0.037919	2.758009
143.783757	2158.677645	0.980926	-0.037991	2.763903
144.503125	2169.684836	0.985931	-0.038129	2.769834
144.846465	2180.724701	0.990936	-0.038196	2.775707
145.227058	2191.744671	0.995940	-0.038270	2.781564
145.735975	2202.744806	1.000945	-0.038369	2.787419
146.203498	2213.788744	1.005950	-0.038459	2.793277
146.558968	2224.797368	1.010954	-0.038528	2.799086
146.985977	2235.829264	1.015959	-0.038611	2.804907
147.293345	2246.862863	1.020964	-0.038672	2.810698
147.937306	2257.832103	1.025969	-0.038795	2.816497
148.491862	2268.880778	1.030973	-0.038902	2.822311
149.087681	2279.865806	1.035978	-0.039017	2.828086
149.331329	2290.939281	1.040983	-0.039065	2.833839
149.797129	2301.909898	1.045988	-0.039155	2.839563
150.148380	2312.982952	1.050992	-0.039224	2.845309
150.464301	2323.996483	1.055997	-0.039286	2.851008
150.871506	2334.975009	1.061002	-0.039365	2.856691
151.297908	2346.023817	1.066006	-0.039448	2.862402
151.593054	2357.039931	1.071011	-0.039506	2.868065
152.104313	2368.038200	1.076016	-0.039604	2.873740
152.577928	2379.065451	1.081021	-0.039696	2.879414
152.912516	2390.097824	1.086025	-0.039762	2.885057
153.303399	2401.132482	1.091030	-0.039838	2.890698
153.784242	2412.120154	1.096035	-0.039931	2.896319
154.429684	2423.139581	1.101039	-0.040054	2.901970
154.856860	2434.143508	1.106044	-0.040137	2.907569
155.217919	2445.201155	1.111049	-0.040208	2.913174
155.518041	2456.199277	1.116054	-0.040267	2.918728
155.986308	2467.221869	1.121058	-0.040357	2.924310
156.670312	2478.215446	1.126063	-0.040488	2.929900
157.238052	2489.241689	1.131068	-0.040598	2.935477
157.711399	2500.274852	1.136073	-0.040689	2.941032
157.858082	2511.324624	1.141077	-0.040720	2.946536
158.056741	2522.329620	1.146082	-0.040760	2.952016
158.485942	2533.306328	1.151087	-0.040843	2.957506
158.880725	2544.349810	1.156091	-0.040920	2.963013
159.398731	2555.377039	1.161096	-0.041020	2.968520
159.996464	2566.370106	1.166101	-0.041134	2.974012
160.197952	2577.427307	1.171106	-0.041175	2.979466
160.666188	2588.413738	1.176110	-0.041266	2.984916
161.054071	2599.456485	1.181115	-0.041341	2.990370
161.537942	2610.444198	1.186120	-0.041435	2.995802
161.877868	2621.490540	1.191125	-0.041501	3.001232
162.367597	2632.481424	1.196129	-0.041596	3.006646
162.675002	2643.516467	1.201134	-0.041656	3.012046
163.071117	2654.525711	1.206139	-0.041733	3.017436
163.604389	2665.539215	1.211143	-0.041836	3.022838
164.044202	2676.571197	1.216148	-0.041921	3.028226
164.412177	2687.598741	1.221153	-0.041993	3.033592
164.749138	2698.606100	1.226158	-0.042059	3.038934
164.943329	2709.628281	1.231162	-0.042098	3.044253
165.296709	2720.663587	1.236167	-0.042167	3.049592
165.727039	2731.641496	1.241172	-0.042251	3.054905
166.261706	2742.671420	1.246177	-0.042354	3.060249
166.612603	2753.697171	1.251181	-0.042422	3.065554
168.322171	2764.525483	1.256186	-0.042746	3.070949
170.218931	2775.679714	1.261191	-0.043104	3.076514
170.954312	2786.718006	1.266195	-0.043245	3.081852
171.405146	2797.760787	1.271200	-0.043332	3.087141
171.922031	2808.751224	1.276205	-0.043432	3.092407
172.353891	2819.830457	1.281210	-0.043516	3.097693
172.567070	2830.825089	1.286214	-0.043559	3.102900
172.786650	2841.854479	1.291219	-0.043603	3.108115
173.287540	2852.849716	1.296224	-0.043699	3.113344
173.689041	2863.865888	1.301228	-0.043777	3.118561
174.100063	2874.876758	1.306233	-0.043857	3.123768
174.589489	2885.910845	1.311238	-0.043952	3.128987
174.705449	2896.936743	1.316243	-0.043976	3.134143
175.158718	2907.947152	1.321247	-0.044064	3.139329
175.862278	2918.926476	1.326252	-0.044199	3.144525
176.304183	2929.978374	1.331257	-0.044284	3.149712
176.867883	2940.972868	1.336262	-0.044393	3.154879
177.169047	2952.018727	1.341266	-0.044452	3.160026
177.605120	2963.018507	1.346271	-0.044537	3.165162
178.032056	2974.066397	1.351276	-0.044620	3.170310
178.785559	2985.005002	1.356280	-0.044764	3.175444
179.284300	2996.091993	1.361285	-0.044860	3.180602
179.373310	3007.110806	1.366290	-0.044879	3.185667
179.839425	3018.118292	1.371295	-0.044970	3.190768
180.234517	3029.124834	1.376299	-0.045046	3.195851
180.579021	3040.149592	1.381304	-0.045114	3.200928
181.245565	3051.144932	1.386309	-0.045242	3.206026
181.608792	3062.204973	1.391314	-0.045312	3.211105
181.847645	3073.188124	1.396318	-0.045360	3.216124
182.038767	3084.230708	1.401323	-0.045399	3.221157
182.600876	3095.229332	1.406328	-0.045507	3.226209
182.861569	3106.270399	1.411332	-0.045558	3.231234
183.098751	3117.258845	1.416337	-0.045606	3.236225
183.499758	3128.294357	1.421342	-0.045684	3.241249
183.713385	3139.304700	1.426347	-0.045726	3.246231
184.465779	3150.294428	1.431351	-0.045870	3.251265
184.984689	3161.326394	1.436356	-0.045970	3.256280
186.047952	3172.262576	1.441361	-0.046173	3.261314
187.571128	3183.320678	1.446366	-0.046461	3.266453
188.044746	3194.395346	1.451370	-0.046553	3.271457
188.342601	3205.387623	1.456375	-0.046611	3.276394
188.827552	3216.424156	1.461380	-0.046705	3.281368
189.143748	3227.446555	1.466384	-0.046767	3.286306
189.500270	3238.465219	1.471389	-0.046837	3.291240
190.172951	3249.439792	1.476394	-0.046966	3.296187
190.512670	3260.504921	1.481399	-0.047032	3.301124
191.019148	3271.480925	1.486403	-0.047130	3.306036
191.402970	3282.517738	1.491408	-0.047205	3.310951
191.876699	3293.527429	1.496413	-0.047296	3.315859
192.316948	3304.574034	1.501417	-0.047382	3.320771
192.620084	3315.582970	1.506422	-0.047441	3.325642
192.916350	3326.597462	1.511427	-0.047500	3.330508
193.191282	3337.605112	1.516432	-0.047554	3.335361
193.692350	3348.603224	1.521436	-0.047651	3.340230
194.193611	3359.632141	1.526441	-0.047748	3.345106
194.687180	3370.659020	1.531446	-0.047843	3.349972
194.950867	3381.676551	1.536451	-0.047895	3.354799
195.244992	3392.698074	1.541455	-0.047953	3.359625
195.652683	3403.692374	1.546460	-0.048032	3.364446
196.143112	3414.734463	1.551465	-0.048127	3.369290
196.500733	3425.728279	1.556469	-0.048197	3.374091
196.806403	3436.767805	1.561474	-0.048257	3.378898
197.187688	3447.737069	1.566479	-0.048331	3.383676
197.588805	3458.807320	1.571484	-0.048409	3.388494
197.888358	3469.813095	1.576488	-0.048468	3.393265
198.211613	3480.805510	1.581493	-0.048531	3.398027
198.788642	3491.825372	1.586498	-0.048642	3.402823
199.179642	3502.859787	1.591503	-0.048719	3.407597
199.541558	3513.849481	1.596507	-0.048789	3.412342
199.841526	3524.895394	1.601512	-0.048848	3.417096
200.271133	3535.869814	1.606517	-0.048932	3.421829
200.757179	3546.923426	1.611521	-0.049025	3.426595
201.066950	3557.948353	1.616526	-0.049086	3.431322
201.349887	3568.957212	1.621531	-0.049142	3.436032
201.846864	3579.942295	1.626536	-0.049238	3.440751
202.085751	3590.998558	1.631540	-0.049286	3.445463
202.776545	3601.979030	1.636545	-0.049418	3.450189
202.979885	3613.041957	1.641550	-0.049459	3.454887
203.327050	3624.019173	1.646555	-0.049527	3.459558
203.743452	3635.051875	1.651559	-0.049608	3.464255
204.148500	3646.059252	1.656564	-0.049686	3.468933
204.636365	3657.074064	1.661569	-0.049781	3.473618
204.970920	3668.111896	1.666573	-0.049846	3.478288
205.310767	3679.099321	1.671578	-0.049913	3.482931
205.654737	3690.134196	1.676583	-0.049980	3.487589
206.118736	3701.130485	1.681588	-0.050070	3.492238
206.598197	3712.150375	1.686592	-0.050162	3.496892
206.830771	3723.183624	1.691597	-0.050209	3.501517
207.127398	3734.180495	1.696602	-0.050267	3.506128
207.488836	3745.236896	1.701606	-0.050338	3.510765
207.720393	3756.213305	1.706611	-0.050384	3.515348
207.998917	3767.236736	1.711616	-0.050439	3.519950
208.453480	3778.271712	1.716621	-0.050527	3.524570
208.774018	3789.292864	1.721625	-0.050590	3.529164
209.253484	3800.269856	1.726630	-0.050682	3.533751
209.612559	3811.324340	1.731635	-0.050753	3.538350
210.000207	3822.298618	1.736640	-0.050828	3.542913
210.455684	3833.329892	1.741644	-0.050916	3.547502
210.655574	3844.347289	1.746649	-0.050956	3.552050
211.061975	3855.373752	1.751654	-0.051035	3.556619
211.344105	3866.363504	1.756658	-0.051091	3.561154
211.812345	3877.415327	1.761663	-0.051182	3.565728
212.186155	3888.394710	1.766668	-0.051255	3.570256
212.395779	3899.423888	1.771673	-0.051297	3.574781
212.911504	3910.445953	1.776677	-0.051396	3.579331
212.977240	3921.489108	1.781682	-0.051411	3.583835
213.433480	3932.474326	1.786687	-0.051499	3.588351
213.702622	3943.495189	1.791692	-0.051553	3.592856
214.194456	3954.517070	1.796696	-0.051648	3.597380
214.386665	3965.524203	1.801701	-0.051687	3.601860
214.592385	3976.556296	1.806706	-0.051728	3.606346
215.159839	3987.523350	1.811710	-0.051837	3.610838
215.437628	3998.591406	1.816715	-0.051892	3.615335
215.734307	4009.588667	1.821720	-0.051950	3.619799
216.195001	4020.586661	1.826725	-0.052039	3.624276
216.563582	4031.647865	1.831729	-0.052111	3.628762
216.818745	4042.623887	1.836734	-0.052162	3.633197
217.166888	4053.668485	1.841739	-0.052230	3.637664
217.455699	4064.638877	1.846744	-0.052287	3.642089
217.934289	4075.688508	1.851748	-0.052379	3.646560
218.188230	4086.684514	1.856753	-0.052430	3.650981
218.776123	4097.746530	1.861758	-0.052543	3.655458
219.344733	4108.763429	1.866762	-0.052652	3.659909
219.683653	4119.823017	1.871767	-0.052719	3.664347
220.067124	4130.790392	1.876772	-0.052793	3.668748
220.270336	4141.851418	1.881777	-0.052834	3.673163
220.767657	4152.812933	1.886781	-0.052930	3.677562
221.112976	4163.870228	1.891786	-0.052998	3.681979
221.329121	4174.882393	1.896791	-0.053041	3.686359
221.616550	4185.875866	1.901795	-0.053098	3.690734
222.264085	4196.875295	1.906800	-0.053222	3.695143
222.679676	4207.911416	1.911805	-0.053303	3.699537
223.066784	4218.920028	1.916810	-0.053378	3.703912
223.197310	4229.979082	1.921814	-0.053405	3.708276
223.585509	4240.949620	1.926819	-0.053481	3.712626
223.835625	4252.006468	1.931824	-0.053530	3.716991
224.138830	4262.964006	1.936829	-0.053590	3.721316
224.463932	4274.033433	1.941833	-0.053654	3.725683
224.624475	4285.021932	1.946838	-0.053687	3.729996
225.034671	4296.028621	1.951843	-0.053766	3.734337
225.345116	4307.054901	1.956847	-0.053827	3.738670
225.576766	4318.098444	1.961852	-0.053874	3.742997
226.171111	4329.077992	1.966857	-0.053988	3.747330
