Wed Nov 23 18:28:15 2022

Number of Points = 2200
Depth (nm)	Load (µN)	Time (s)	Depth (V)	Load (V)
-5.920130	1.023645	0.000000	0.016165	1.012360
0.000000	6.528502	0.005005	0.015053	1.023487
4.726190	15.877110	0.010009	0.014163	1.039319
7.374740	27.036144	0.015014	0.013664	1.056363
9.191935	38.343070	0.020019	0.013320	1.072916
10.536219	49.651243	0.025024	0.013065	1.088983
11.552764	60.874307	0.030028	0.012871	1.104541
12.409827	72.097812	0.035033	0.012708	1.119805
13.205981	83.231183	0.040038	0.012556	1.134717
15.126237	94.093929	0.045043	0.012193	1.149618
16.849151	105.259895	0.050047	0.011867	1.164618
18.162912	116.441528	0.055052	0.011617	1.179258
19.239403	127.627372	0.060057	0.011413	1.193616
20.212246	138.780994	0.065061	0.011227	1.207717
21.109070	149.893546	0.070066	0.011056	1.221571
22.412057	160.920618	0.075071	0.010809	1.235345
23.811813	171.991830	0.080076	0.010544	1.249059
25.127198	183.095122	0.085080	0.010294	1.262625
26.125750	194.270723	0.090085	0.010104	1.275996
27.338921	205.329694	0.095090	0.009874	1.289184
28.201310	216.501928	0.100094	0.009709	1.302221
29.598228	227.487856	0.105099	0.009444	1.315138
30.714408	238.601099	0.110104	0.009232	1.327955
31.943337	249.640152	0.115109	0.008999	1.340614
33.323186	260.710666	0.120113	0.008737	1.353246
34.168869	271.895171	0.125118	0.008575	1.365675
35.867536	282.788291	0.130123	0.008254	1.378011
37.155691	293.956942	0.135128	0.008010	1.390370
38.258370	305.072084	0.140132	0.007800	1.402493
39.235401	316.157571	0.145137	0.007614	1.414433
40.484024	327.178379	0.150142	0.007377	1.426307
41.514540	338.281760	0.155146	0.007181	1.438087
42.805306	349.320789	0.160151	0.006936	1.449800
43.805790	360.423407	0.165156	0.006745	1.461377
44.704971	371.527754	0.170161	0.006574	1.472827
45.548686	382.580402	0.175165	0.006413	1.484118
46.414290	393.628233	0.180170	0.006248	1.495326
47.508701	404.677879	0.185175	0.006040	1.506533
48.502975	415.751410	0.190180	0.005850	1.517644
49.852047	426.723432	0.195184	0.005594	1.528698
50.926684	437.858827	0.200189	0.005390	1.539735
51.724393	448.953944	0.205194	0.005238	1.550560
52.506665	459.995158	0.210198	0.005088	1.561254
53.196177	471.084877	0.215203	0.004956	1.571889
53.935327	482.118912	0.220208	0.004814	1.582417
55.269785	493.088632	0.225213	0.004561	1.593012
56.000790	504.226496	0.230217	0.004421	1.603492
57.095031	515.214885	0.235222	0.004213	1.613886
58.221601	526.274550	0.240227	0.003999	1.624288
59.146219	537.356582	0.245232	0.003823	1.634579
59.894688	548.420457	0.250236	0.003680	1.644732
60.673742	559.450536	0.255241	0.003531	1.654803
61.448442	570.529706	0.260246	0.003383	1.664854
62.493981	581.512420	0.265250	0.003184	1.674844
63.151198	592.629198	0.270255	0.003058	1.684771
64.063557	603.626735	0.275260	0.002884	1.694615
64.749650	614.724118	0.280265	0.002752	1.704418
65.523352	625.744144	0.285269	0.002605	1.714126
66.260165	636.795458	0.290274	0.002464	1.723793
67.056263	647.823216	0.295279	0.002311	1.733405
67.707993	658.906540	0.300283	0.002186	1.742966
68.370008	669.936010	0.305288	0.002059	1.752434
68.955883	680.978433	0.310293	0.001947	1.761838
70.079490	691.957854	0.315298	0.001733	1.771297
70.751470	703.065114	0.320302	0.001604	1.780679
71.604598	714.044457	0.325307	0.001442	1.789960
72.440045	725.120114	0.330312	0.001282	1.799265
73.335978	736.138859	0.335317	0.001111	1.808494
74.081821	747.205350	0.340321	0.000969	1.817671
74.872028	758.233316	0.345326	0.000818	1.826783
75.688371	769.283374	0.350331	0.000662	1.835875
76.382128	780.315986	0.355335	0.000529	1.844873
77.341480	791.347805	0.360340	0.000346	1.853900
77.756842	802.449136	0.365345	0.000265	1.862788
78.540961	813.420590	0.370350	0.000115	1.871633
79.673519	824.424287	0.375354	-0.000100	1.880556
80.199287	835.533471	0.380359	-0.000201	1.889354
80.930292	846.538926	0.385364	-0.000341	1.898086
81.722502	857.557615	0.390369	-0.000492	1.906804
82.381798	868.660233	0.395373	-0.000619	1.915511
82.872830	879.671586	0.400378	-0.000714	1.924064
83.673417	890.676450	0.405383	-0.000867	1.932656
84.202266	901.748608	0.410387	-0.000969	1.941189
84.961058	912.729710	0.415392	-0.001114	1.949676
85.534756	923.816628	0.420397	-0.001224	1.958157
86.100079	934.812761	0.425402	-0.001333	1.966531
86.914524	945.863129	0.430406	-0.001489	1.974974
87.739625	956.878506	0.435411	-0.001646	1.983358
88.360495	967.928786	0.440416	-0.001765	1.991679
88.854700	978.995804	0.445421	-0.001861	1.999946
89.469675	989.962194	0.450425	-0.001979	2.008136
90.359705	1001.018738	0.455430	-0.002149	2.016426
90.870510	1012.080277	0.460435	-0.002247	2.024591
91.339994	1023.100998	0.465439	-0.002338	2.032684
91.691065	1034.185089	0.470444	-0.002407	2.040760
92.424743	1045.146736	0.475449	-0.002547	2.048811
92.884193	1056.238345	0.480454	-0.002636	2.056856
93.569580	1067.200830	0.485458	-0.002767	2.064833
94.062635	1078.270165	0.490463	-0.002863	2.072807
94.892950	1089.242453	0.495468	-0.003021	2.080764
95.721574	1100.332002	0.500472	-0.003179	2.088772
96.060780	1111.384031	0.505477	-0.003246	2.096605
96.734514	1122.360942	0.510482	-0.003375	2.104437
97.425443	1133.393943	0.515487	-0.003507	2.112283
97.995122	1144.438604	0.520491	-0.003617	2.120078
98.610049	1155.455538	0.525496	-0.003735	2.127837
99.394716	1166.475271	0.530501	-0.003885	2.135608
100.185627	1177.505998	0.535506	-0.004036	2.143360
100.305514	1188.612091	0.540510	-0.004061	2.150980
100.853959	1199.578208	0.545515	-0.004167	2.158576
101.378404	1210.604524	0.550520	-0.004268	2.166181
102.216363	1221.630648	0.555524	-0.004428	2.173831
102.747734	1232.662910	0.560529	-0.004531	2.181388
103.442405	1243.684847	0.565534	-0.004664	2.188948
104.093293	1254.711847	0.570539	-0.004788	2.196476
104.665660	1265.743354	0.575543	-0.004899	2.203963
105.517166	1276.743856	0.580548	-0.005061	2.211466
106.098940	1287.812370	0.585553	-0.005173	2.218929
106.698676	1298.809412	0.590558	-0.005288	2.226323
107.546918	1309.835199	0.595562	-0.005450	2.233767
108.031608	1320.879873	0.600567	-0.005544	2.241118
108.805436	1331.910383	0.605572	-0.005692	2.248498
108.919963	1343.019380	0.610576	-0.005716	2.255762
109.406698	1353.955310	0.615581	-0.005810	2.262970
110.159704	1364.952348	0.620586	-0.005954	2.270253
110.803954	1376.005353	0.625591	-0.006078	2.277525
111.584683	1387.031703	0.630595	-0.006227	2.284785
112.044120	1398.069219	0.635600	-0.006316	2.291961
112.612594	1409.085940	0.640605	-0.006425	2.299124
113.194820	1420.113264	0.645610	-0.006537	2.306275
113.707121	1431.153508	0.650614	-0.006636	2.313396
114.382878	1442.139711	0.655619	-0.006766	2.320496
114.837587	1453.218735	0.660624	-0.006854	2.327585
115.243540	1464.249361	0.665628	-0.006933	2.334613
115.706253	1475.232284	0.670633	-0.007022	2.341601
116.498844	1486.245915	0.675638	-0.007174	2.348656
117.073899	1497.278972	0.680643	-0.007284	2.355657
117.539260	1508.351133	0.685647	-0.007374	2.362638
118.087786	1519.324926	0.690652	-0.007480	2.369555
118.693186	1530.365972	0.695657	-0.007596	2.376505
119.290485	1541.382606	0.700661	-0.007711	2.383417
120.040935	1552.380916	0.705666	-0.007855	2.390329
120.810010	1563.392577	0.710671	-0.008002	2.397233
121.556746	1574.469854	0.715676	-0.008144	2.404152
121.954152	1585.508271	0.720680	-0.008222	2.410957
122.143482	1596.556793	0.725685	-0.008260	2.417708
122.472442	1607.557393	0.730690	-0.008324	2.424439
123.132874	1618.525135	0.735695	-0.008451	2.431197
123.858500	1629.555702	0.740699	-0.008590	2.437986
124.470510	1640.601192	0.745704	-0.008708	2.444743
125.137491	1651.613230	0.750709	-0.008835	2.451472
125.482336	1662.679380	0.755713	-0.008903	2.458152
125.796267	1673.669780	0.760718	-0.008965	2.464762
126.472566	1684.687944	0.765723	-0.009094	2.471441
126.837453	1695.740829	0.770728	-0.009165	2.478063
127.297106	1706.759379	0.775732	-0.009254	2.484664
127.501245	1717.795858	0.780737	-0.009295	2.491210
128.317404	1728.753645	0.785742	-0.009451	2.497809
128.868485	1739.788505	0.790747	-0.009557	2.504385
129.462405	1750.858780	0.795751	-0.009672	2.510972
129.829212	1761.860330	0.800756	-0.009743	2.517459
130.213729	1772.894185	0.805761	-0.009818	2.523952
130.468828	1783.931289	0.810765	-0.009869	2.530405
131.010553	1794.914250	0.815770	-0.009973	2.536864
131.328688	1805.971407	0.820775	-0.010035	2.543307
132.026623	1816.913844	0.825780	-0.010169	2.549739
132.688933	1827.992429	0.830784	-0.010296	2.556226
133.173773	1839.034526	0.835789	-0.010390	2.562642
133.394583	1850.051063	0.840794	-0.010434	2.568979
134.010563	1861.077942	0.845799	-0.010552	2.575379
134.669739	1872.086525	0.850803	-0.010679	2.581760
135.313544	1883.068136	0.855808	-0.010802	2.588108
135.582257	1894.139093	0.860813	-0.010855	2.594421
135.866231	1905.169106	0.865817	-0.010911	2.600700
136.343925	1916.149426	0.870822	-0.011004	2.606970
136.936191	1927.200298	0.875827	-0.011118	2.613284
137.417814	1938.183011	0.880832	-0.011211	2.619526
137.720107	1949.244533	0.885836	-0.011270	2.625765
137.906194	1960.265905	0.890841	-0.011308	2.631945
138.367856	1971.274456	0.895846	-0.011397	2.638153
138.731919	1982.282372	0.900850	-0.011468	2.644328
139.203016	1993.336628	0.905855	-0.011559	2.650534
139.705224	2004.327770	0.910860	-0.011656	2.656695
139.963306	2015.367366	0.915865	-0.011707	2.662826
140.528561	2026.351173	0.920869	-0.011816	2.668966
141.170957	2037.378711	0.925874	-0.011939	2.675129
141.677421	2048.409936	0.930879	-0.012037	2.681256
142.158816	2059.397742	0.935884	-0.012130	2.687341
142.561667	2070.449687	0.940888	-0.012209	2.693433
143.019217	2081.417353	0.945893	-0.012297	2.699475
143.743106	2092.451132	0.950898	-0.012436	2.705585
144.228210	2103.519698	0.955902	-0.012530	2.711658
144.552161	2114.516335	0.960907	-0.012593	2.717652
144.841901	2125.531040	0.965912	-0.012650	2.723637
145.277667	2136.576150	0.970917	-0.012735	2.729649
145.611485	2147.582086	0.975921	-0.012800	2.735610
145.900414	2158.581010	0.980926	-0.012857	2.741547
146.532588	2169.607061	0.985931	-0.012978	2.747542
147.053499	2180.629539	0.990936	-0.013079	2.753504
147.434858	2191.640927	0.995940	-0.013153	2.759424
148.125959	2202.669655	1.000945	-0.013285	2.765391
148.896244	2213.670590	1.005950	-0.013433	2.771344
149.342196	2224.699825	1.010954	-0.013519	2.777245
149.847841	2235.726750	1.015959	-0.013617	2.783142
150.073306	2246.788396	1.020964	-0.013662	2.788999
150.446577	2257.772192	1.025969	-0.013735	2.794827
150.879626	2268.797763	1.030973	-0.013818	2.800674
151.208307	2279.824958	1.035978	-0.013883	2.806493
151.686206	2290.827310	1.040983	-0.013975	2.812311
152.179698	2301.843392	1.045988	-0.014071	2.818126
152.600346	2312.849478	1.050992	-0.014152	2.823912
153.191469	2323.881911	1.055997	-0.014266	2.829728
153.641290	2334.919274	1.061002	-0.014353	2.835511
154.334130	2345.905806	1.066006	-0.014486	2.841295
154.688383	2356.964343	1.071011	-0.014555	2.847050
154.938938	2367.970126	1.076016	-0.014605	2.852750
155.257965	2378.984423	1.081021	-0.014667	2.858453
155.955505	2389.989330	1.086025	-0.014801	2.864200
156.237951	2401.025083	1.091030	-0.014857	2.869886
157.010546	2412.014461	1.096035	-0.015004	2.875614
157.553288	2423.076402	1.101039	-0.015109	2.881331
157.857188	2434.088493	1.106044	-0.015169	2.886974
157.983985	2445.146594	1.111049	-0.015195	2.892601
158.359314	2456.107660	1.116054	-0.015268	2.898208
158.911747	2467.129608	1.121058	-0.015375	2.903861
159.410584	2478.144206	1.126063	-0.015471	2.909491
159.791724	2489.183760	1.131068	-0.015545	2.915105
160.187562	2500.216291	1.136073	-0.015622	2.920706
160.573957	2511.203521	1.141077	-0.015698	2.926273
161.153079	2522.223379	1.146082	-0.015809	2.931874
161.442849	2533.264795	1.151087	-0.015866	2.937432
161.777787	2544.269211	1.156091	-0.015932	2.942967
162.019694	2555.302261	1.161096	-0.015980	2.948492
162.425499	2566.317251	1.166101	-0.016059	2.954022
162.961349	2577.297531	1.171106	-0.016162	2.959545
163.608109	2588.327252	1.176110	-0.016286	2.965097
164.233132	2599.350161	1.181115	-0.016406	2.970633
164.692651	2610.412040	1.186120	-0.016495	2.976153
164.764378	2621.396742	1.191125	-0.016511	2.981567
165.280606	2632.432209	1.196129	-0.016611	2.987061
165.764148	2643.413631	1.201134	-0.016704	2.992514
166.409881	2654.438330	1.206139	-0.016828	2.998003
166.744157	2665.471440	1.211143	-0.016894	3.003439
167.481754	2676.485105	1.216148	-0.017035	3.008915
167.838395	2687.501756	1.221153	-0.017104	3.014327
168.136744	2698.543870	1.226158	-0.017163	3.019732
168.432972	2709.532610	1.231162	-0.017221	3.025102
168.906869	2720.588096	1.236167	-0.017313	3.030520
169.113820	2731.593675	1.241172	-0.017355	3.035866
169.609552	2742.601911	1.246177	-0.017450	3.041245
170.077023	2753.596427	1.251181	-0.017541	3.046604
170.216720	2764.660478	1.256186	-0.017570	3.051940
170.644595	2775.641868	1.261191	-0.017653	3.057268
171.248088	2786.663691	1.266195	-0.017769	3.062631
171.389007	2797.702538	1.271200	-0.017798	3.067927
171.728204	2808.714786	1.276205	-0.017864	3.073229
171.925994	2819.747735	1.281210	-0.017904	3.078512
172.258567	2830.760529	1.286214	-0.017969	3.083795
172.733456	2841.758954	1.291219	-0.018061	3.089082
173.157571	2852.757478	1.296224	-0.018143	3.094353
173.430130	2863.804851	1.301228	-0.018197	3.099617
173.804643	2874.827938	1.306233	-0.018270	3.104874
174.197387	2885.830927	1.311238	-0.018347	3.110116
174.667942	2896.833273	1.316243	-0.018438	3.115359
175.391083	2907.847410	1.321247	-0.018576	3.120633
175.817108	2918.881812	1.326252	-0.018659	3.125867
176.110302	2929.928851	1.331257	-0.018716	3.131080
176.353695	2940.929700	1.336262	-0.018765	3.136256
176.943635	2951.912883	1.341266	-0.018878	3.141462
177.287676	2962.958179	1.346271	-0.018946	3.146655
177.424340	2974.000880	1.351276	-0.018974	3.151810
177.939579	2984.987348	1.356280	-0.019073	3.156981
178.209626	2996.002056	1.361285	-0.019127	3.162124
178.721284	3007.032595	1.366290	-0.019225	3.167299
179.231329	3018.005095	1.371295	-0.019324	3.172437
179.652184	3029.061208	1.376299	-0.019406	3.177594
180.105845	3040.080039	1.381304	-0.019493	3.182730
180.416814	3051.113133	1.386309	-0.019555	3.187845
180.788600	3062.099633	1.391314	-0.019627	3.192938
181.170799	3073.134442	1.396318	-0.019701	3.198047
181.507456	3084.165002	1.401323	-0.019767	3.203139
182.285504	3095.129994	1.406328	-0.019916	3.208251
182.379163	3106.191569	1.411332	-0.019936	3.213309
182.592545	3117.224378	1.416337	-0.019979	3.218362
182.987430	3128.190690	1.421342	-0.020056	3.223400
183.618026	3139.216635	1.426347	-0.020177	3.228489
183.831668	3150.244392	1.431351	-0.020220	3.233515
184.382974	3161.273018	1.436356	-0.020326	3.238578
184.523923	3172.295139	1.441361	-0.020355	3.243577
184.985646	3183.301728	1.446366	-0.020445	3.248602
185.272003	3194.308929	1.451370	-0.020501	3.253597
185.806500	3205.324649	1.456375	-0.020604	3.258621
186.148070	3216.346429	1.461380	-0.020671	3.263614
186.536749	3227.390760	1.466384	-0.020746	3.268616
186.829098	3238.364112	1.471389	-0.020804	3.273566
187.361052	3249.396317	1.476394	-0.020907	3.278565
187.589497	3260.435964	1.481399	-0.020952	3.283521
188.092409	3271.435256	1.486403	-0.021049	3.288487
188.258242	3282.462783	1.491408	-0.021083	3.293414
188.556647	3293.472063	1.496413	-0.021142	3.298343
188.576743	3304.482194	1.501417	-0.021148	3.303230
189.097205	3315.514591	1.506422	-0.021249	3.308183
189.342043	3326.523609	1.511427	-0.021297	3.313083
189.766778	3337.535648	1.516432	-0.021380	3.317999
190.217703	3348.539313	1.521436	-0.021467	3.322908
190.785161	3359.562194	1.526441	-0.021576	3.327832
191.032730	3370.580135	1.531446	-0.021626	3.332707
191.667589	3381.610390	1.536451	-0.021747	3.337628
191.834798	3392.619885	1.541455	-0.021782	3.342475
192.136199	3403.634108	1.546460	-0.021841	3.347334
192.554138	3414.644682	1.551465	-0.021922	3.352198
192.856472	3425.670536	1.556469	-0.021981	3.357047
193.449279	3436.663259	1.561474	-0.022095	3.361911
193.870630	3447.727080	1.566479	-0.022177	3.366777
194.104081	3458.716230	1.571484	-0.022224	3.371581
194.681561	3469.719930	1.576488	-0.022335	3.376426
194.768771	3480.763302	1.581493	-0.022354	3.381222
195.601114	3491.728176	1.586498	-0.022513	3.386067
195.944909	3502.787461	1.591503	-0.022580	3.390886
196.245669	3513.804584	1.596507	-0.022639	3.395676
196.496564	3524.833325	1.601512	-0.022689	3.400458
196.972221	3535.830492	1.606517	-0.022781	3.405246
197.274793	3546.843754	1.611521	-0.022840	3.410013
197.815798	3557.847968	1.616526	-0.022945	3.414799
198.025516	3568.903960	1.621531	-0.022987	3.419560
198.591834	3579.894923	1.626536	-0.023096	3.424329
199.014317	3590.918933	1.631540	-0.023178	3.429089
199.504406	3601.933363	1.636545	-0.023272	3.433845
199.762858	3612.938111	1.641550	-0.023324	3.438564
200.250929	3623.955020	1.646555	-0.023418	3.443308
200.725553	3634.996448	1.651559	-0.023510	3.448055
200.813731	3646.005418	1.656564	-0.023529	3.452735
201.232985	3656.994291	1.661569	-0.023610	3.457440
201.772618	3668.023015	1.666573	-0.023714	3.462169
202.091698	3679.046598	1.671578	-0.023777	3.466863
202.431446	3690.079753	1.676583	-0.023844	3.471558
202.641336	3701.084440	1.681588	-0.023886	3.476219
202.933430	3712.097911	1.686592	-0.023943	3.480887
203.377226	3723.106488	1.691597	-0.024029	3.485564
203.726378	3734.134554	1.696602	-0.024097	3.490232
204.094416	3745.134538	1.701606	-0.024169	3.494884
204.589396	3756.165654	1.706611	-0.024265	3.499558
204.716839	3767.187315	1.711616	-0.024291	3.504179
205.181402	3778.199231	1.716621	-0.024381	3.508828
205.415587	3789.203402	1.721625	-0.024428	3.513442
205.720593	3800.263051	1.726630	-0.024488	3.518081
206.154138	3811.208772	1.731635	-0.024572	3.522680
206.431225	3822.277077	1.736640	-0.024627	3.527307
206.720940	3833.281413	1.741644	-0.024684	3.531903
207.224490	3844.259852	1.746649	-0.024781	3.536505
207.648973	3855.305399	1.751654	-0.024863	3.541121
207.999396	3866.335825	1.756658	-0.024932	3.545716
208.147778	3877.329341	1.761663	-0.024962	3.550267
208.540732	3888.350839	1.766668	-0.025039	3.554851
209.274390	3899.344594	1.771673	-0.025179	3.559456
209.653098	3910.375692	1.776677	-0.025253	3.564030
209.820953	3921.417793	1.781682	-0.025287	3.568580
210.161025	3932.431753	1.786687	-0.025354	3.573131
210.236400	3943.430253	1.791692	-0.025371	3.577641
210.652109	3954.435659	1.796696	-0.025451	3.582185
211.113566	3965.456960	1.801701	-0.025541	3.586735
211.522929	3976.464454	1.806706	-0.025620	3.591268
211.716004	3987.514794	1.811710	-0.025659	3.595789
212.504058	3998.482069	1.816715	-0.025810	3.600335
212.619195	4009.550045	1.821720	-0.025834	3.604843
213.102344	4020.524083	1.826725	-0.025928	3.609347
213.516926	4031.555929	1.831729	-0.026008	3.613862
213.878086	4042.566718	1.836734	-0.026079	3.618356
214.041683	4053.614534	1.841739	-0.026112	3.622839
214.272476	4064.618141	1.846744	-0.026158	3.627305
214.465747	4075.598954	1.851748	-0.026197	3.631753
215.048390	4086.649539	1.856753	-0.026309	3.636264
215.312233	4097.667261	1.861758	-0.026361	3.640723
215.887335	4108.739528	1.866762	-0.026472	3.645231
216.085856	4119.710298	1.871767	-0.026512	3.649653
216.521017	4130.760924	1.876772	-0.026596	3.654127
216.666027	4141.748751	1.881777	-0.026626	3.658539
217.058677	4152.793585	1.886781	-0.026703	3.662995
217.391714	4163.809947	1.891786	-0.026768	3.667427
217.761005	4174.795962	1.896791	-0.026840	3.671846
217.891264	4185.821236	1.901795	-0.026867	3.676251
218.374870	4196.852284	1.906800	-0.026961	3.680689
218.479439	4207.871043	1.911805	-0.026983	3.685077
219.106790	4218.849306	1.916810	-0.027103	3.689498
219.004506	4229.902171	1.921814	-0.027087	3.693868
219.363833	4240.903110	1.926819	-0.027157	3.698259
219.487119	4251.942479	1.931824	-0.027183	3.702637
219.816279	4262.951036	1.936829	-0.027247	3.707018
220.047982	4273.935629	1.941833	-0.027294	3.711374
220.464870	4284.973346	1.946838	-0.027375	3.715765
220.847346	4295.956393	1.951843	-0.027449	3.720126
221.094746	4307.022569	1.956847	-0.027498	3.724501
221.345625	4317.994446	1.961852	-0.027548	3.728834
221.722029	4329.028170	1.966857	-0.027621	3.733198
222.154308	4340.045579	1.971862	-0.027705	3.737557
