Wed Nov 23 17:12:02 2022

Number of Points = 2200
Depth (nm)	Load (µN)	Time (s)	Depth (V)	Load (V)
-0.790489	1.394229	0.000000	0.050518	0.908574
0.000000	7.353326	0.005005	0.050368	0.918694
1.159957	16.193334	0.010009	0.050148	0.933497
2.236987	26.685155	0.015014	0.049944	0.950593
3.182929	37.735348	0.020019	0.049763	0.968164
3.888644	48.933549	0.025024	0.049628	0.985510
4.584598	60.121149	0.030028	0.049495	1.002534
5.089547	71.330055	0.035033	0.049397	1.019201
5.759769	82.474669	0.040038	0.049269	1.035595
6.198072	93.675609	0.045043	0.049184	1.051692
6.748084	104.837727	0.050047	0.049078	1.067550
7.169204	115.979220	0.055052	0.048996	1.083081
7.537265	127.158418	0.060057	0.048924	1.098417
7.875901	138.275185	0.065061	0.048858	1.113445
8.278561	149.417440	0.070066	0.048780	1.128336
8.579719	160.547265	0.075071	0.048720	1.142969
9.095235	171.628793	0.080076	0.048621	1.157455
9.249371	182.803526	0.085080	0.048589	1.171712
9.647133	193.894275	0.090085	0.048512	1.185804
10.076844	204.967062	0.095090	0.048428	1.199723
10.479020	216.082568	0.100094	0.048350	1.213522
10.855277	227.197807	0.105099	0.048277	1.227153
11.267668	238.294141	0.110104	0.048197	1.240628
11.406798	249.433872	0.115109	0.048168	1.253890
11.872834	260.461551	0.120113	0.048078	1.267023
12.095466	271.602144	0.125118	0.048033	1.280048
12.508157	282.648511	0.130123	0.047953	1.292914
12.825936	293.811141	0.135128	0.047890	1.305745
13.237337	304.830280	0.140132	0.047811	1.318328
13.298602	315.951994	0.145137	0.047796	1.330764
13.734934	326.992091	0.150142	0.047712	1.343146
14.118826	338.034247	0.155146	0.047637	1.355395
23.343232	346.449064	0.160151	0.045904	1.368163
39.979927	357.782467	0.165156	0.042779	1.386792
40.511013	370.954664	0.170161	0.042677	1.400955
40.963597	382.327188	0.175165	0.042589	1.413066
41.830442	393.368166	0.180170	0.042423	1.424886
42.537267	404.453645	0.185175	0.042288	1.436594
43.337059	415.519344	0.190180	0.042135	1.448221
43.955450	426.618132	0.195184	0.042016	1.459723
44.852133	437.624741	0.200189	0.041845	1.471142
45.730313	448.686088	0.205194	0.041678	1.482520
46.583949	459.748291	0.210198	0.041515	1.493804
47.312240	470.839989	0.215203	0.041376	1.504987
48.509174	481.820682	0.220208	0.041148	1.516143
49.147475	492.981824	0.225213	0.041026	1.527198
49.962575	503.991622	0.230217	0.040870	1.538088
50.892326	515.038163	0.235222	0.040693	1.548976
51.847624	526.091239	0.240227	0.040511	1.559801
52.684131	537.151531	0.245232	0.040351	1.570519
53.391880	548.246216	0.250236	0.040216	1.581153
54.031150	559.283513	0.255241	0.040093	1.591639
54.919966	570.322650	0.260246	0.039924	1.602140
55.681685	581.368105	0.265250	0.039778	1.612536
56.695363	592.398944	0.270255	0.039585	1.622934
57.744667	603.452232	0.275260	0.039385	1.633297
58.511848	614.535905	0.280265	0.039239	1.643531
59.181043	625.580861	0.285269	0.039110	1.653636
60.154607	636.602708	0.290274	0.038925	1.663754
60.798140	647.679430	0.295279	0.038801	1.673756
61.889481	658.674525	0.300283	0.038594	1.683766
62.417341	669.818923	0.305288	0.038492	1.693672
63.315659	680.778583	0.310293	0.038321	1.703474
64.092034	691.858772	0.315298	0.038172	1.713285
65.105797	702.864948	0.320302	0.037979	1.723050
65.702738	713.965736	0.325307	0.037865	1.732714
66.646343	724.974605	0.330312	0.037685	1.742349
67.375833	736.034626	0.335317	0.037545	1.751911
68.564343	747.006610	0.340321	0.037320	1.761482
69.197837	758.145576	0.345326	0.037198	1.770978
70.244603	769.112847	0.350331	0.036999	1.780400
70.987932	780.195499	0.355335	0.036857	1.789780
71.671733	791.263963	0.360340	0.036726	1.799081
72.037137	802.329155	0.365345	0.036654	1.808241
72.814416	813.325416	0.370350	0.036506	1.817415
73.680604	824.331971	0.375354	0.036340	1.826577
74.365602	835.419927	0.380359	0.036209	1.835707
74.912874	846.451770	0.385364	0.036104	1.844707
75.674985	857.506085	0.390369	0.035958	1.853742
76.413324	868.479836	0.395373	0.035817	1.862662
77.475488	879.529750	0.400378	0.035615	1.871688
77.934696	890.619553	0.405383	0.035526	1.880537
78.917106	901.586397	0.410387	0.035339	1.889391
79.601922	912.664144	0.415392	0.035207	1.898208
80.308948	923.705956	0.420397	0.035072	1.906963
80.894724	934.766061	0.425402	0.034959	1.915659
81.507505	945.772087	0.430406	0.034842	1.924281
82.130692	956.812562	0.435411	0.034722	1.932893
82.961460	967.838072	0.440416	0.034563	1.941510
83.300416	978.910220	0.445421	0.034497	1.949995
84.168467	989.894441	0.450425	0.034331	1.958515
84.828517	1000.934745	0.455430	0.034205	1.966986
85.793500	1011.948380	0.460435	0.034021	1.975479
86.364765	1023.012010	0.465439	0.033911	1.983871
86.967112	1034.073783	0.470444	0.033795	1.992235
87.489562	1045.121953	0.475449	0.033695	2.000532
88.394047	1056.077446	0.480454	0.033522	2.008824
89.025365	1067.161691	0.485458	0.033401	2.017107
89.900911	1078.169617	0.490463	0.033234	2.025361
90.481702	1089.205639	0.495468	0.033122	2.033528
91.330979	1100.242156	0.500472	0.032960	2.041729
91.845425	1111.297954	0.505477	0.032861	2.049828
92.630633	1122.303339	0.510482	0.032711	2.057926
93.167627	1133.352700	0.515487	0.032607	2.065962
93.964691	1144.367497	0.520491	0.032455	2.074006
94.455005	1155.398837	0.525496	0.032360	2.081955
95.140461	1166.444477	0.530501	0.032229	2.089931
95.703564	1177.477938	0.535506	0.032121	2.097839
96.203553	1188.525054	0.540510	0.032024	2.105711
96.588204	1199.543946	0.545515	0.031949	2.113507
97.300582	1210.549057	0.550520	0.031813	2.121342
97.877715	1221.568964	0.555524	0.031702	2.129126
98.834103	1232.574460	0.560529	0.031520	2.136960
99.293770	1243.661854	0.565534	0.031431	2.144706
99.939528	1254.678311	0.570539	0.031307	2.152419
100.338381	1265.720403	0.575543	0.031229	2.160064
101.106915	1276.714318	0.580548	0.031082	2.167734
101.482736	1287.805257	0.585553	0.031009	2.175353
102.352071	1298.732397	0.590558	0.030843	2.182947
102.897238	1309.823503	0.595562	0.030738	2.190551
103.491448	1320.846139	0.600567	0.030624	2.198093
103.828918	1331.891564	0.605572	0.030558	2.205567
104.573279	1342.891830	0.610576	0.030415	2.213077
105.393437	1353.870229	0.615581	0.030259	2.220564
106.214599	1364.915788	0.620586	0.030102	2.228069
106.900171	1375.991886	0.625591	0.029971	2.235540
107.347431	1387.024802	0.630595	0.029884	2.242904
107.711006	1398.057089	0.635600	0.029813	2.250225
108.522953	1409.033212	0.640605	0.029658	2.257584
109.186576	1420.075357	0.645610	0.029531	2.264929
109.709464	1431.107044	0.650614	0.029430	2.272213
110.146947	1442.161104	0.655619	0.029345	2.279469
110.865803	1453.132664	0.660624	0.029207	2.286709
111.610981	1464.183630	0.665628	0.029065	2.293983
112.264081	1475.182002	0.670633	0.028939	2.301181
113.026263	1486.211555	0.675638	0.028794	2.308399
113.731743	1497.252375	0.680643	0.028659	2.315589
114.104583	1508.317361	0.685647	0.028586	2.322702
114.440705	1519.339788	0.690652	0.028520	2.329758
115.043925	1530.341620	0.695657	0.028404	2.336836
115.543182	1541.362151	0.700661	0.028308	2.343883
116.192066	1552.373763	0.705666	0.028183	2.350933
116.671684	1563.432854	0.710671	0.028091	2.357957
117.132605	1574.445983	0.715676	0.028001	2.364927
117.589276	1585.478928	0.720680	0.027913	2.371889
118.192934	1596.463945	0.725685	0.027797	2.378830
118.874851	1607.492288	0.730690	0.027666	2.385793
119.390308	1618.559927	0.735695	0.027567	2.392726
119.793474	1629.574749	0.740699	0.027488	2.399584
120.428428	1640.573673	0.745704	0.027367	2.406459
120.758763	1651.646985	0.750709	0.027302	2.413298
121.182106	1662.620418	0.755713	0.027220	2.420076
121.854406	1673.627796	0.760718	0.027091	2.426905
122.360703	1684.702351	0.765723	0.026993	2.433723
122.861300	1695.683180	0.770728	0.026896	2.440463
123.407252	1706.731066	0.775732	0.026791	2.447234
124.173507	1717.747627	0.780737	0.026645	2.454011
124.502809	1728.766935	0.785742	0.026580	2.460685
124.925453	1739.807064	0.790747	0.026498	2.467371
125.309296	1750.847204	0.795751	0.026423	2.474031
125.736083	1761.830358	0.800756	0.026341	2.480648
126.405141	1772.842231	0.805761	0.026212	2.487311
126.948568	1783.931336	0.810765	0.026108	2.493978
127.459564	1794.872616	0.815770	0.026009	2.500533
128.162711	1805.918985	0.820775	0.025874	2.507169
128.526700	1816.982242	0.825780	0.025803	2.513733
129.077149	1827.961591	0.830784	0.025697	2.520266
129.471467	1839.012538	0.835789	0.025621	2.526794
129.849522	1850.065434	0.840794	0.025547	2.533303
130.409255	1861.022865	0.845799	0.025439	2.539774
130.654408	1872.088365	0.850803	0.025390	2.546232
131.225317	1883.077078	0.855808	0.025281	2.552691
131.679053	1894.127639	0.860813	0.025193	2.559146
132.145757	1905.122116	0.865817	0.025102	2.565555
132.869064	1916.139720	0.870822	0.024964	2.572009
133.406909	1927.252543	0.875827	0.024860	2.578467
133.988136	1938.165067	0.880832	0.024749	2.584802
134.564998	1949.223235	0.885836	0.024638	2.591204
134.906536	1960.249436	0.890841	0.024571	2.597528
135.402495	1971.267243	0.895846	0.024475	2.603861
135.925075	1982.266691	0.900850	0.024374	2.610172
136.330684	1993.311805	0.905855	0.024295	2.616472
137.100325	2004.293757	0.910860	0.024148	2.622788
137.658944	2015.336972	0.915865	0.024041	2.629084
138.045059	2026.388517	0.920869	0.023965	2.635339
138.406799	2037.383941	0.925874	0.023895	2.641543
139.036916	2048.392527	0.930879	0.023774	2.647788
139.463298	2059.427319	0.935884	0.023691	2.653996
139.813436	2070.437528	0.940888	0.023623	2.660163
140.099707	2081.460722	0.945893	0.023566	2.666311
140.522462	2092.485644	0.950898	0.023484	2.672470
141.014163	2103.480053	0.955902	0.023389	2.678609
141.422075	2114.513818	0.960907	0.023310	2.684742
141.721367	2125.550168	0.965912	0.023251	2.690843
142.330703	2136.536686	0.970917	0.023134	2.696956
142.614413	2147.609515	0.975921	0.023078	2.703047
143.102932	2158.572361	0.980926	0.022984	2.709099
143.698893	2169.607574	0.985931	0.022869	2.715195
144.431013	2180.595429	0.990936	0.022729	2.721275
144.955605	2191.655120	0.995940	0.022628	2.727344
145.365448	2202.693408	1.000945	0.022548	2.733369
145.844938	2213.681838	1.005950	0.022456	2.739365
146.165786	2224.725028	1.010954	0.022393	2.745351
146.466652	2235.750022	1.015959	0.022333	2.751311
146.825244	2246.766588	1.020964	0.022263	2.757262
147.190819	2257.780626	1.025969	0.022192	2.763201
147.764361	2268.774247	1.030973	0.022082	2.769151
148.111473	2279.821895	1.035978	0.022014	2.775079
148.441735	2290.852303	1.040983	0.021949	2.780982
148.929497	2301.837297	1.045988	0.021855	2.786874
149.303906	2312.894536	1.050992	0.021782	2.792773
149.500688	2323.912942	1.055997	0.021742	2.798611
149.991230	2334.908888	1.061002	0.021648	2.804472
150.443393	2345.939792	1.066006	0.021560	2.810333
150.899374	2356.953696	1.071011	0.021472	2.816173
151.371160	2367.978940	1.076016	0.021380	2.822010
151.752691	2378.968076	1.081021	0.021306	2.827801
152.233212	2390.012589	1.086025	0.021213	2.833625
152.535133	2401.046646	1.091030	0.021154	2.839402
152.949222	2412.048933	1.096035	0.021073	2.845169
153.533067	2423.055412	1.101039	0.020961	2.850954
153.891367	2434.106169	1.106044	0.020891	2.856714
154.305059	2445.083683	1.111049	0.020811	2.862433
154.613923	2456.155492	1.116054	0.020750	2.868173
155.128401	2467.128030	1.121058	0.020651	2.873882
155.524879	2478.167252	1.126063	0.020574	2.879596
156.105031	2489.165675	1.131068	0.020462	2.885306
156.569690	2500.222666	1.136073	0.020372	2.891016
157.144689	2511.214783	1.141077	0.020262	2.896700
157.526596	2522.244682	1.146082	0.020187	2.902361
158.146855	2533.248219	1.151087	0.020068	2.908034
158.284581	2544.288833	1.156091	0.020040	2.913641
158.885217	2555.258237	1.161096	0.019924	2.919272
159.204547	2566.348480	1.166101	0.019861	2.924910
159.515204	2577.341982	1.171106	0.019800	2.930487
159.832542	2588.365335	1.176110	0.019738	2.936069
160.087338	2599.382934	1.181115	0.019688	2.941628
160.527846	2610.370777	1.186120	0.019602	2.947190
161.023366	2621.396967	1.191125	0.019507	2.952768
161.161576	2632.454644	1.196129	0.019478	2.958298
161.757250	2643.412562	1.201134	0.019363	2.963837
162.186309	2654.486883	1.206139	0.019280	2.969398
162.576393	2665.476304	1.211143	0.019204	2.974900
162.938079	2676.516600	1.216148	0.019134	2.980413
163.201956	2687.523750	1.221153	0.019081	2.985885
163.655891	2698.551070	1.226158	0.018993	2.991385
164.027777	2709.550882	1.231162	0.018921	2.996849
164.586541	2720.553045	1.236167	0.018813	3.002332
165.196319	2731.583547	1.241172	0.018696	3.007826
165.675254	2742.603994	1.246177	0.018604	3.013286
165.890943	2753.636413	1.251181	0.018560	3.018703
166.208740	2764.656941	1.256186	0.018498	3.024119
166.766497	2775.653841	1.261191	0.018391	3.029550
167.049549	2786.698746	1.266195	0.018335	3.034953
167.563058	2797.695269	1.271200	0.018236	3.040357
168.013877	2808.715832	1.276205	0.018148	3.045754
168.369396	2819.750637	1.281210	0.018079	3.051134
168.773022	2830.746868	1.286214	0.018001	3.056493
169.355011	2841.747284	1.291219	0.017889	3.061870
169.670085	2852.791955	1.296224	0.017827	3.067220
170.034385	2863.811624	1.301228	0.017756	3.072556
170.288838	2874.843062	1.306233	0.017705	3.077873
170.921573	2885.828488	1.311238	0.017584	3.083212
171.249577	2896.871087	1.316243	0.017519	3.088526
171.895780	2907.860309	1.321247	0.017396	3.093851
172.355055	2918.890392	1.326252	0.017307	3.099159
172.776289	2929.910326	1.331257	0.017225	3.104447
173.073409	2940.952587	1.336262	0.017166	3.109720
173.650050	2951.926673	1.341266	0.017055	3.114991
173.923652	2962.990915	1.346271	0.017001	3.120252
174.283314	2973.984437	1.351276	0.016931	3.125484
174.494857	2985.027136	1.356280	0.016889	3.130709
174.909084	2996.012872	1.361285	0.016808	3.135927
175.537958	3007.008847	1.366290	0.016688	3.141171
176.131932	3018.052811	1.371295	0.016573	3.146423
176.353763	3029.075364	1.376299	0.016529	3.151605
176.833452	3040.086203	1.381304	0.016436	3.156808
177.115651	3051.111877	1.386309	0.016381	3.161983
177.540448	3062.126264	1.391314	0.016298	3.167163
177.808601	3073.148415	1.396318	0.016245	3.172317
178.080373	3084.175586	1.401323	0.016191	3.177466
178.624355	3095.169832	1.406328	0.016087	3.182628
179.185179	3106.187055	1.411332	0.015979	3.187794
179.412099	3117.219760	1.416337	0.015933	3.192913
179.668444	3128.255743	1.421342	0.015882	3.198030
179.961599	3139.243927	1.426347	0.015825	3.203122
180.491167	3150.271071	1.431351	0.015723	3.208255
180.566510	3161.298941	1.436356	0.015706	3.213319
180.957290	3172.282887	1.441361	0.015630	3.218398
181.377646	3183.313633	1.446366	0.015548	3.223493
182.096199	3194.308183	1.451370	0.015411	3.228603
182.310932	3205.356070	1.456375	0.015368	3.233663
182.724309	3216.375803	1.461380	0.015287	3.238728
182.932337	3227.387804	1.466384	0.015246	3.243755
183.374932	3238.390166	1.471389	0.015160	3.248800
183.763100	3249.407805	1.476394	0.015084	3.253837
184.324654	3260.423465	1.481399	0.014976	3.258888
184.631893	3271.455768	1.486403	0.014916	3.263905
185.228934	3282.451299	1.491408	0.014801	3.268936
185.568340	3293.497276	1.496413	0.014735	3.273948
185.800424	3304.507787	1.501417	0.014688	3.278922
186.164416	3315.519798	1.506422	0.014617	3.283907
186.553657	3326.542386	1.511427	0.014541	3.288892
186.767829	3337.557318	1.516432	0.014499	3.293843
187.299791	3348.558549	1.521436	0.014396	3.298822
187.698619	3359.580539	1.526441	0.014318	3.303785
188.178455	3370.597838	1.531446	0.014226	3.308748
188.327539	3381.635562	1.536451	0.014195	3.313672
188.866270	3392.638956	1.541455	0.014091	3.318622
189.138567	3403.653164	1.546460	0.014037	3.323535
189.553743	3414.658952	1.551465	0.013957	3.328456
190.078164	3425.680897	1.556469	0.013856	3.333390
190.313023	3436.706746	1.561474	0.013809	3.338282
190.548390	3447.736088	1.566479	0.013762	3.343169
190.862815	3458.755202	1.571484	0.013700	3.348053
190.841241	3469.768159	1.576488	0.013701	3.352887
191.255844	3480.779452	1.581493	0.013621	3.357766
191.671765	3491.757563	1.586498	0.013540	3.362624
192.166803	3502.814018	1.591503	0.013445	3.367519
192.430894	3513.826015	1.596507	0.013392	3.372358
192.992989	3524.810533	1.601512	0.013284	3.377215
193.605735	3535.823043	1.606517	0.013166	3.382084
194.093350	3546.879905	1.611521	0.013072	3.386949
194.525953	3557.879288	1.616526	0.012988	3.391776
194.715335	3568.910168	1.621531	0.012950	3.396580
195.191518	3579.907751	1.626536	0.012858	3.401397
195.724374	3590.930869	1.631540	0.012755	3.406225
196.035525	3601.939305	1.636545	0.012694	3.411013
196.274795	3612.990784	1.641550	0.012646	3.415805
196.614985	3623.964589	1.646555	0.012580	3.420568
197.089290	3635.001791	1.651559	0.012488	3.425368
197.217445	3646.030215	1.656564	0.012461	3.430116
197.563480	3657.031821	1.661569	0.012394	3.434871
197.876764	3668.059543	1.666573	0.012332	3.439628
198.478587	3679.060224	1.671578	0.012217	3.444400
198.563829	3690.122256	1.676583	0.012198	3.449131
199.000101	3701.074706	1.681588	0.012113	3.453850
199.335133	3712.125553	1.686592	0.012048	3.458592
199.657048	3723.118317	1.691597	0.011985	3.463302
200.066283	3734.153825	1.696602	0.011905	3.468033
200.352900	3745.141972	1.701606	0.011849	3.472723
200.714753	3756.199114	1.706611	0.011778	3.477445
200.952913	3767.175510	1.711616	0.011730	3.482113
201.229079	3778.242286	1.716621	0.011676	3.486816
201.496614	3789.215462	1.721625	0.011623	3.491472
201.634174	3800.248770	1.726630	0.011594	3.496133
202.043619	3811.253784	1.731635	0.011515	3.500807
202.327424	3822.294077	1.736640	0.011459	3.505474
202.750612	3833.276291	1.741644	0.011377	3.510127
203.070738	3844.315001	1.746649	0.011314	3.514786
203.383299	3855.333363	1.751654	0.011253	3.519429
203.746477	3866.356537	1.756658	0.011182	3.524074
203.900068	3877.387135	1.761663	0.011150	3.528691
204.151135	3888.374359	1.766668	0.011100	3.533296
204.582163	3899.364889	1.771673	0.011017	3.537916
204.992188	3910.407463	1.776677	0.010937	3.542550
205.529947	3921.403947	1.781682	0.010833	3.547172
205.761246	3932.438566	1.786687	0.010787	3.551770
206.146477	3943.450651	1.791692	0.010712	3.556369
206.541820	3954.459500	1.796696	0.010635	3.560963
207.043692	3965.473898	1.801701	0.010539	3.565564
207.271517	3976.500220	1.806706	0.010493	3.570134
207.584205	3987.501359	1.811710	0.010432	3.574697
207.960254	3998.537813	1.816715	0.010358	3.579276
208.160730	4009.544564	1.821720	0.010318	3.583817
208.679733	4020.564621	1.826725	0.010218	3.588393
209.025550	4031.579240	1.831729	0.010150	3.592942
209.312508	4042.609369	1.836734	0.010094	3.597485
209.488370	4053.606919	1.841739	0.010058	3.601997
209.844148	4064.647721	1.846744	0.009989	3.606540
209.937914	4075.638478	1.851748	0.009968	3.611028
210.524064	4086.646919	1.856753	0.009855	3.615572
210.906736	4097.682388	1.861758	0.009781	3.620098
211.229291	4108.751848	1.866762	0.009718	3.624626
211.401202	4119.744454	1.871767	0.009683	3.629101
211.556581	4130.784489	1.876772	0.009651	3.633588
212.053642	4141.775571	1.881777	0.009555	3.638087
212.462338	4152.805642	1.886781	0.009475	3.642585
212.997357	4163.795405	1.891786	0.009372	3.647076
213.339134	4174.827754	1.896791	0.009305	3.651557
213.430195	4185.857831	1.901795	0.009286	3.656005
213.680563	4196.852437	1.906800	0.009236	3.660451
214.156521	4207.878275	1.911805	0.009144	3.664927
214.482946	4218.898134	1.916810	0.009080	3.669380
214.757995	4229.907723	1.921814	0.009026	3.673817
215.026457	4240.922444	1.926819	0.008972	3.678251
215.310141	4251.950612	1.931824	0.008916	3.682686
215.901828	4262.984480	1.936829	0.008803	3.687150
216.182946	4273.940249	1.941833	0.008747	3.691545
216.369417	4284.996061	1.946838	0.008710	3.695965
216.491006	4296.009133	1.951843	0.008684	3.700356
216.612765	4307.047938	1.956847	0.008658	3.704752
217.104854	4318.016885	1.961852	0.008563	3.709153
217.338224	4329.055574	1.966857	0.008517	3.713549
217.704251	4340.054122	1.971862	0.008445	3.717939
217.782936	4351.101071	1.976866	0.008428	3.722312
218.035987	4362.091325	1.981871	0.008378	3.726676
218.126296	4373.103569	1.986876	0.008358	3.731027
218.542736	4384.116534	1.991881	0.008277	3.735406
219.030299	4395.133932	1.996885	0.008183	3.739789
219.082250	4406.167440	2.001890	0.008171	3.744129
219.314826	4417.174369	2.006895	0.008124	3.748472
