Wed Nov 23 19:44:20 2022

Number of Points = 2200
Depth (nm)	Load (µN)	Time (s)	Depth (V)	Load (V)
-1.341284	1.281109	0.000000	0.031850	0.966602
0.000000	7.463820	0.005005	0.031596	0.976743
1.688418	16.480080	0.010009	0.031277	0.991196
3.395652	27.037996	0.015014	0.030954	1.007708
5.051401	38.066061	0.020019	0.030641	1.024603
6.692597	49.198966	0.025024	0.030330	1.041363
9.330060	60.125718	0.030028	0.029833	1.058082
11.776223	71.278062	0.035033	0.029371	1.074752
13.953197	82.529113	0.040038	0.028960	1.091163
15.474585	93.829177	0.045043	0.028671	1.107074
17.337874	104.894414	0.050047	0.028319	1.122614
19.029629	116.119909	0.055052	0.027999	1.138067
20.286162	127.288349	0.060057	0.027760	1.153035
21.933887	138.369294	0.065061	0.027448	1.167880
23.329579	149.550514	0.070066	0.027184	1.182547
24.363447	160.736488	0.075071	0.026987	1.196876
25.465174	171.819923	0.080076	0.026777	1.210941
26.960011	182.889490	0.085080	0.026494	1.224999
28.357110	193.979154	0.090085	0.026229	1.238879
29.564058	205.123514	0.095090	0.026000	1.252586
30.637325	216.251177	0.100094	0.025796	1.266067
31.728160	227.343659	0.105099	0.025588	1.279373
32.722363	238.465576	0.110104	0.025399	1.292534
33.859849	249.568156	0.115109	0.025183	1.305600
34.929873	260.631065	0.120113	0.024979	1.318463
35.907310	271.722392	0.125118	0.024793	1.331195
37.141456	282.735405	0.130123	0.024559	1.343823
38.314616	293.843297	0.135128	0.024336	1.356411
39.535022	304.896532	0.140132	0.024104	1.368842
40.446429	316.073178	0.145137	0.023931	1.381173
41.219152	327.152847	0.150142	0.023783	1.393239
42.191530	338.186391	0.155146	0.023598	1.405227
43.327979	349.218620	0.160151	0.023382	1.417175
44.316180	360.318703	0.165156	0.023194	1.429036
45.245808	371.398924	0.170161	0.023016	1.440757
46.125455	382.480947	0.175165	0.022849	1.452366
47.127234	393.526396	0.180170	0.022658	1.463891
47.985987	404.592491	0.185175	0.022494	1.475294
49.073847	415.643926	0.190180	0.022287	1.486676
49.917315	426.738358	0.195184	0.022126	1.497927
50.725489	437.795488	0.200189	0.021972	1.509045
51.961350	448.779705	0.205194	0.021737	1.520159
52.950678	459.892187	0.210198	0.021549	1.531230
53.540258	471.035012	0.215203	0.021435	1.542113
54.367040	482.017591	0.220208	0.021277	1.552848
55.067298	493.125684	0.225213	0.021143	1.563585
56.241698	504.072278	0.230217	0.020920	1.574255
57.375735	515.129606	0.235222	0.020705	1.584943
58.331353	526.216072	0.240227	0.020523	1.595526
59.197748	537.302724	0.245232	0.020357	1.606011
59.925625	548.363474	0.250236	0.020218	1.616358
60.686461	559.438191	0.255241	0.020073	1.626662
61.530174	570.444902	0.260246	0.019911	1.636866
62.219287	581.507093	0.265250	0.019779	1.647007
63.061048	592.546104	0.270255	0.019619	1.657113
63.914934	603.576963	0.275260	0.019456	1.667154
64.689266	614.638879	0.280265	0.019308	1.677138
65.796171	625.634932	0.285269	0.019097	1.687107
66.598605	636.742033	0.290274	0.018944	1.697019
67.307093	647.803919	0.295279	0.018808	1.706806
68.175389	658.794683	0.300283	0.018643	1.716525
69.296388	669.832550	0.305288	0.018430	1.726304
70.011806	680.922784	0.310293	0.018293	1.735951
70.707852	691.951336	0.315298	0.018159	1.745486
71.618329	703.000520	0.320302	0.017986	1.755050
72.372814	714.026798	0.325307	0.017841	1.764497
73.550768	725.029061	0.330312	0.017618	1.773997
74.412126	736.111223	0.335317	0.017453	1.783419
75.383454	747.137621	0.340321	0.017268	1.792778
76.271684	758.196502	0.345326	0.017099	1.802090
77.094138	769.248567	0.350331	0.016942	1.811330
78.203335	780.206677	0.355335	0.016731	1.820528
79.136448	791.296218	0.360340	0.016553	1.829735
79.935365	802.365066	0.365345	0.016401	1.838841
80.567002	813.443967	0.370350	0.016279	1.847864
80.996943	824.480434	0.375354	0.016196	1.856753
82.097497	835.427781	0.380359	0.015987	1.865714
82.948610	846.505989	0.385364	0.015824	1.874666
83.863681	857.517368	0.390369	0.015650	1.883540
84.851075	868.573064	0.395373	0.015462	1.892426
85.736614	879.592994	0.400378	0.015293	1.901215
86.653844	890.637898	0.405383	0.015118	1.909991
87.361068	901.706646	0.410387	0.014983	1.918689
88.216022	912.716250	0.415392	0.014819	1.927341
89.306983	923.727635	0.420397	0.014612	1.936017
89.961150	934.814248	0.425402	0.014487	1.944597
90.780251	945.815441	0.430406	0.014330	1.953118
91.717541	956.833273	0.435411	0.014151	1.961644
92.673500	967.883113	0.440416	0.013969	1.970162
93.180464	978.968881	0.445421	0.013872	1.978554
93.690615	989.999265	0.450425	0.013773	1.986870
94.223751	1001.026481	0.455430	0.013670	1.995155
95.419846	1011.963281	0.460435	0.013443	2.003507
96.369696	1023.047025	0.465439	0.013262	2.011869
97.351738	1034.106052	0.470444	0.013075	2.020186
97.870000	1045.170566	0.475449	0.012975	2.028357
98.596422	1056.151826	0.480454	0.012836	2.036486
99.154073	1067.233501	0.485458	0.012729	2.044614
99.901864	1078.239913	0.490463	0.012586	2.052701
100.553482	1089.282610	0.495468	0.012461	2.060759
101.220504	1100.295187	0.500472	0.012333	2.068768
102.207940	1111.300177	0.505477	0.012145	2.076818
102.893979	1122.376859	0.510482	0.012013	2.084814
103.665313	1133.366362	0.515487	0.011866	2.092739
104.773364	1144.375590	0.520491	0.011655	2.100727
105.484225	1155.456763	0.525496	0.011519	2.108641
105.867480	1166.518827	0.530501	0.011444	2.116434
106.379920	1177.538336	0.535506	0.011346	2.124199
107.033422	1188.527441	0.540510	0.011220	2.131948
107.793477	1199.582655	0.545515	0.011075	2.139739
108.738996	1210.540759	0.550520	0.010895	2.147477
109.460810	1221.659203	0.555524	0.010757	2.155246
109.984855	1232.656519	0.560529	0.010656	2.162858
110.833039	1243.654338	0.565534	0.010494	2.170518
111.961087	1254.654331	0.570539	0.010279	2.178216
112.731169	1265.746379	0.575543	0.010132	2.185867
113.292429	1276.772456	0.580548	0.010024	2.193400
114.104342	1287.773933	0.585553	0.009869	2.200946
114.775285	1298.834689	0.590558	0.009740	2.208475
115.151669	1309.892654	0.595562	0.009667	2.215910
115.925271	1320.857632	0.600567	0.009519	2.223346
116.658505	1331.872582	0.605572	0.009379	2.230782
117.810175	1342.909779	0.610576	0.009160	2.238300
118.438676	1353.949688	0.615581	0.009039	2.245679
119.200001	1364.978636	0.620586	0.008894	2.253055
120.008876	1376.011586	0.625591	0.008739	2.260420
121.069007	1386.979269	0.630595	0.008537	2.267773
121.697400	1398.059152	0.635600	0.008417	2.275081
122.280450	1409.111395	0.640605	0.008305	2.282338
122.841019	1420.114928	0.645610	0.008197	2.289535
123.509920	1431.144469	0.650614	0.008069	2.296750
124.066584	1442.162078	0.655619	0.007961	2.303910
124.994286	1453.180661	0.660624	0.007785	2.311127
125.566402	1464.217139	0.665628	0.007674	2.318257
126.221549	1475.252543	0.670633	0.007549	2.325382
126.763432	1486.271317	0.675638	0.007444	2.332451
127.324676	1497.310027	0.680643	0.007336	2.339515
127.839590	1508.325859	0.685647	0.007237	2.346534
128.677344	1519.340037	0.690652	0.007077	2.353597
129.150911	1530.347240	0.695657	0.006986	2.360560
129.820200	1541.415245	0.700661	0.006857	2.367579
130.357249	1552.425190	0.705666	0.006754	2.374515
130.977732	1563.426468	0.710671	0.006635	2.381442
131.770148	1574.456547	0.715676	0.006483	2.388401
132.356719	1585.505452	0.720680	0.006370	2.395310
132.825985	1596.504362	0.725685	0.006280	2.402144
133.623892	1607.532873	0.730690	0.006127	2.409043
134.107532	1618.583349	0.735695	0.006034	2.415872
134.745861	1629.586993	0.740699	0.005911	2.422685
135.187499	1640.607650	0.745704	0.005826	2.429449
135.912800	1651.640447	0.750709	0.005687	2.436258
136.564798	1662.639182	0.755713	0.005562	2.443012
137.379376	1673.677021	0.760718	0.005406	2.449804
138.127712	1684.674444	0.765723	0.005263	2.456539
138.941772	1695.723822	0.770728	0.005107	2.463299
139.239012	1706.770917	0.775732	0.005049	2.469938
139.549307	1717.821832	0.780737	0.004988	2.476565
139.781840	1728.819739	0.785742	0.004942	2.483127
140.382762	1739.813902	0.790747	0.004826	2.489740
140.810343	1750.868840	0.795751	0.004743	2.496339
141.726753	1761.829625	0.800756	0.004568	2.502958
142.273888	1772.887607	0.805761	0.004463	2.509545
142.824467	1783.923274	0.810765	0.004357	2.516103
143.036391	1794.969934	0.815770	0.004315	2.522586
143.873627	1805.916168	0.820775	0.004155	2.529112
144.623285	1816.960345	0.825780	0.004011	2.535661
145.265667	1827.991587	0.830784	0.003888	2.542166
145.952695	1839.020518	0.835789	0.003756	2.548660
146.440367	1850.048694	0.840794	0.003662	2.555100
146.757398	1861.095633	0.845799	0.003600	2.561504
147.452869	1872.082588	0.850803	0.003467	2.567926
148.061866	1883.143632	0.855808	0.003350	2.574359
148.394883	1894.182376	0.860813	0.003285	2.580712
148.878892	1905.144481	0.865817	0.003191	2.587034
149.567354	1916.170667	0.870822	0.003059	2.593413
149.946790	1927.204181	0.875827	0.002985	2.599725
150.592369	1938.207722	0.880832	0.002861	2.606053
150.986099	1949.276495	0.885836	0.002785	2.612356
151.435909	1960.251101	0.890841	0.002698	2.618601
152.284322	1971.230564	0.895846	0.002536	2.624905
153.296518	1982.276712	0.900850	0.002343	2.631261
153.791306	1993.339984	0.905855	0.002247	2.637518
154.203862	2004.353586	0.910860	0.002167	2.643718
154.949539	2015.339056	0.915865	0.002025	2.649947
155.435903	2026.413265	0.920869	0.001931	2.656164
155.797770	2037.413034	0.925874	0.001860	2.662304
156.446101	2048.400449	0.930879	0.001736	2.668473
156.930249	2059.434407	0.935884	0.001642	2.674624
157.567386	2070.435655	0.940888	0.001520	2.680770
158.036480	2081.473948	0.945893	0.001429	2.686892
158.497063	2092.514400	0.950898	0.001340	2.693000
159.154888	2103.460795	0.955902	0.001214	2.699077
159.760106	2114.529258	0.960907	0.001097	2.705198
160.317585	2125.549891	0.965912	0.000990	2.711270
160.779233	2136.578807	0.970917	0.000901	2.717317
161.376071	2147.575249	0.975921	0.000786	2.723355
162.004194	2158.615451	0.980926	0.000665	2.729409
162.533349	2169.630103	0.985931	0.000563	2.735419
163.142877	2180.631587	0.990936	0.000446	2.741422
163.712922	2191.674445	0.995940	0.000337	2.747427
164.352747	2202.682263	1.000945	0.000214	2.753412
165.005061	2213.695093	1.005950	0.000089	2.759389
165.559309	2224.735690	1.010954	-0.000018	2.765350
166.039553	2235.749133	1.015959	-0.000111	2.771272
166.537871	2246.769875	1.020964	-0.000207	2.777189
166.988172	2257.796006	1.025969	-0.000294	2.783087
167.519740	2268.799994	1.030973	-0.000397	2.788975
167.927760	2279.845597	1.035978	-0.000476	2.794851
168.356046	2290.850888	1.040983	-0.000559	2.800697
168.799759	2301.889826	1.045988	-0.000645	2.806551
169.312044	2312.888600	1.050992	-0.000744	2.812383
169.970521	2323.878033	1.055997	-0.000870	2.818222
170.743482	2334.915001	1.061002	-0.001018	2.824091
171.181407	2345.931681	1.066006	-0.001103	2.829884
171.809708	2356.980060	1.071011	-0.001224	2.835711
172.133326	2367.989693	1.076016	-0.001287	2.841458
172.793901	2378.997794	1.081021	-0.001414	2.847246
173.172498	2390.028796	1.086025	-0.001488	2.852989
173.838594	2401.026021	1.091030	-0.001615	2.858748
174.304675	2412.062791	1.096035	-0.001705	2.864485
174.657359	2423.103451	1.101039	-0.001774	2.870193
175.127163	2434.095633	1.106044	-0.001865	2.875885
175.599845	2445.146032	1.111049	-0.001957	2.881594
176.035822	2456.124579	1.116054	-0.002041	2.887251
176.913473	2467.162560	1.121058	-0.002209	2.892994
177.160432	2478.182566	1.126063	-0.002258	2.898620
177.821055	2489.175438	1.131068	-0.002384	2.904284
178.511140	2500.213101	1.136073	-0.002517	2.909965
178.931781	2511.224039	1.141077	-0.002598	2.915579
179.325865	2522.277850	1.146082	-0.002675	2.921200
179.741843	2533.277022	1.151087	-0.002756	2.926786
180.063019	2544.302886	1.156091	-0.002819	2.932360
180.618872	2555.291773	1.161096	-0.002926	2.937940
181.201316	2566.306632	1.166101	-0.003038	2.943527
182.023753	2577.341037	1.171106	-0.003195	2.949149
182.245552	2588.385632	1.176110	-0.003239	2.954675
182.686466	2599.383436	1.181115	-0.003325	2.960200
183.139293	2610.399315	1.186120	-0.003412	2.965725
183.833158	2621.413839	1.191125	-0.003545	2.971275
184.532202	2632.424128	1.196129	-0.003679	2.976814
185.012646	2643.438047	1.201134	-0.003772	2.982311
185.476836	2654.486005	1.206139	-0.003862	2.987812
185.880027	2665.492393	1.211143	-0.003940	2.993274
186.191312	2676.556603	1.216148	-0.004001	2.998740
186.640140	2687.506651	1.221153	-0.004088	3.004161
187.281803	2698.560464	1.226158	-0.004211	3.009651
187.735523	2709.544145	1.231162	-0.004299	3.015069
188.292014	2720.589203	1.236167	-0.004406	3.020522
188.983996	2731.580094	1.241172	-0.004539	3.025958
189.544931	2742.634016	1.246177	-0.004647	3.031396
189.908508	2753.633120	1.251181	-0.004718	3.036769
190.270142	2764.681166	1.256186	-0.004788	3.042156
190.792669	2775.677786	1.261191	-0.004889	3.047531
191.057514	2786.707670	1.266195	-0.004942	3.052876
191.732247	2797.683741	1.271200	-0.005071	3.058244
192.076375	2808.743793	1.276205	-0.005138	3.063596
192.564518	2819.740875	1.281210	-0.005233	3.068929
192.810312	2830.797636	1.286214	-0.005281	3.074246
193.357835	2841.761245	1.291219	-0.005387	3.079552
193.874352	2852.800818	1.296224	-0.005487	3.084881
194.371818	2863.834794	1.301228	-0.005583	3.090196
195.092665	2874.806990	1.306233	-0.005721	3.095503
195.546909	2885.849328	1.311238	-0.005809	3.100796
195.837271	2896.878195	1.316243	-0.005866	3.106052
196.547658	2907.880109	1.321247	-0.006002	3.111344
196.926672	2918.907794	1.326252	-0.006076	3.116593
197.404748	2929.918634	1.331257	-0.006168	3.121839
197.831758	2940.962218	1.336262	-0.006251	3.127084
198.375273	2951.948536	1.341266	-0.006356	3.132310
198.710929	2963.004199	1.346271	-0.006421	3.137530
199.007388	2973.990508	1.351276	-0.006480	3.142704
199.422539	2985.022710	1.356280	-0.006560	3.147907
199.892160	2996.025437	1.361285	-0.006651	3.153096
200.362008	3007.048735	1.366290	-0.006742	3.158285
200.747642	3018.068847	1.371295	-0.006817	3.163452
201.196672	3029.087511	1.376299	-0.006904	3.168619
201.689429	3040.089581	1.381304	-0.006999	3.173776
202.211660	3051.114320	1.386309	-0.007100	3.178938
202.787534	3062.125638	1.391314	-0.007211	3.184093
203.081668	3073.172267	1.396318	-0.007269	3.189218
203.480937	3084.167652	1.401323	-0.007346	3.194326
204.008508	3095.172371	1.406328	-0.007448	3.199446
204.549612	3106.192025	1.411332	-0.007552	3.204567
205.102367	3117.238786	1.416337	-0.007659	3.209693
205.576130	3128.218567	1.421342	-0.007750	3.214770
206.149517	3139.250409	1.426347	-0.007861	3.219876
206.751739	3150.239858	1.431351	-0.007977	3.224958
207.297352	3161.295923	1.436356	-0.008082	3.230055
207.681642	3172.300201	1.441361	-0.008156	3.235098
208.155498	3183.317609	1.446366	-0.008248	3.240152
208.526985	3194.348339	1.451370	-0.008321	3.245190
208.970224	3205.387020	1.456375	-0.008406	3.250234
209.460434	3216.343887	1.461380	-0.008501	3.255238
209.721945	3227.407371	1.466384	-0.008553	3.260253
210.422002	3238.379050	1.471389	-0.008687	3.265276
210.786518	3249.444993	1.476394	-0.008758	3.270290
211.297276	3260.423683	1.481399	-0.008857	3.275276
211.760671	3271.482738	1.486403	-0.008946	3.280284
212.335234	3282.453979	1.491408	-0.009057	3.285259
212.760323	3293.507503	1.496413	-0.009139	3.290244
213.022968	3304.507401	1.501417	-0.009191	3.295177
213.552279	3315.534494	1.506422	-0.009293	3.300149
213.877267	3326.540503	1.511427	-0.009357	3.305078
214.280791	3337.565603	1.516432	-0.009436	3.310017
214.755838	3348.581620	1.521436	-0.009528	3.314954
215.202869	3359.605522	1.526441	-0.009614	3.319884
215.765559	3370.587287	1.531446	-0.009722	3.324802
216.205221	3381.642681	1.536451	-0.009808	3.329730
216.647735	3392.614700	1.541455	-0.009893	3.334614
216.928224	3403.678886	1.546460	-0.009949	3.339511
217.569105	3414.657147	1.551465	-0.010072	3.344408
218.020869	3425.714732	1.556469	-0.010159	3.349309
218.329253	3436.709388	1.561474	-0.010220	3.354157
218.763192	3447.732834	1.566479	-0.010304	3.359027
219.202972	3458.735970	1.571484	-0.010389	3.363881
219.743312	3469.768784	1.576488	-0.010493	3.368753
220.171384	3480.770595	1.581493	-0.010576	3.373591
220.649682	3491.798276	1.586498	-0.010669	3.378439
221.071762	3502.793178	1.591503	-0.010751	3.383259
221.585876	3513.831808	1.596507	-0.010850	3.388102
222.022691	3524.835374	1.601512	-0.010935	3.392914
222.389639	3535.860743	1.606517	-0.011006	3.397720
222.616380	3546.891191	1.611521	-0.011052	3.402504
222.949881	3557.910544	1.616526	-0.011117	3.407289
223.312594	3568.893991	1.621531	-0.011188	3.412056
223.634451	3579.945976	1.626536	-0.011251	3.416840
223.912672	3590.932628	1.631540	-0.011306	3.421585
224.460570	3601.963572	1.636545	-0.011411	3.426374
224.935643	3612.950296	1.641550	-0.011503	3.431128
225.506324	3623.993551	1.646555	-0.011613	3.435911
225.641216	3635.015036	1.651559	-0.011641	3.440627
226.146265	3646.030190	1.656564	-0.011738	3.445377
226.662956	3657.048999	1.661569	-0.011838	3.450124
226.838685	3668.064202	1.666573	-0.011874	3.454822
227.285900	3679.061772	1.671578	-0.011960	3.459538
227.528939	3690.104405	1.676583	-0.012009	3.464243
228.069426	3701.092330	1.681588	-0.012113	3.468953
228.470091	3712.120784	1.686592	-0.012191	3.473657
228.998038	3723.135576	1.691597	-0.012293	3.478364
229.534054	3734.127972	1.696602	-0.012396	3.483055
230.120958	3745.161131	1.701606	-0.012509	3.487764
230.471028	3756.183041	1.706611	-0.012577	3.492434
230.914924	3767.199614	1.711616	-0.012663	3.497106
231.412552	3778.209215	1.716621	-0.012759	3.501775
231.753832	3789.238516	1.721625	-0.012826	3.506428
232.059788	3800.272967	1.726630	-0.012886	3.511073
232.314497	3811.268123	1.731635	-0.012937	3.515689
233.009553	3822.269255	1.736640	-0.013070	3.520352
233.351939	3833.292781	1.741644	-0.013137	3.524978
234.003619	3844.323150	1.746649	-0.013262	3.529635
234.361587	3855.339122	1.751654	-0.013332	3.534247
234.676908	3866.354225	1.756658	-0.013394	3.538848
234.873633	3877.366962	1.761663	-0.013433	3.543429
235.195567	3888.399612	1.766668	-0.013496	3.548026
235.593288	3899.368914	1.771673	-0.013574	3.552599
236.091817	3910.419499	1.776677	-0.013670	3.557210
236.445926	3921.405417	1.781682	-0.013739	3.561774
236.754583	3932.476465	1.786687	-0.013800	3.566361
237.208568	3943.426410	1.791692	-0.013888	3.570908
237.798284	3954.471589	1.796696	-0.014001	3.575504
238.221456	3965.461020	1.801701	-0.014083	3.580052
238.524747	3976.535095	1.806706	-0.014143	3.584616
238.776737	3987.517257	1.811710	-0.014193	3.589131
239.109079	3998.527982	1.816715	-0.014258	3.593661
239.628056	4009.568230	1.821720	-0.014358	3.598217
239.987803	4020.580988	1.826725	-0.014428	3.602739
240.380789	4031.577539	1.831729	-0.014505	3.607252
240.752410	4042.595443	1.836734	-0.014577	3.611766
241.455459	4053.582509	1.841739	-0.014712	3.616298
241.780512	4064.655052	1.846744	-0.014776	3.620817
242.234913	4075.634819	1.851748	-0.014864	3.625307
242.545206	4086.658286	1.856753	-0.014925	3.629794
242.971031	4097.706128	1.861758	-0.015007	3.634297
243.291563	4108.751710	1.866762	-0.015070	3.638782
243.624226	4119.760661	1.871767	-0.015135	3.643249
244.299372	4130.797976	1.876772	-0.015265	3.647757
244.557270	4141.779778	1.881777	-0.015316	3.652193
245.135859	4152.800584	1.886781	-0.015427	3.656674
245.361387	4163.804251	1.891786	-0.015472	3.661104
245.904983	4174.834735	1.896791	-0.015577	3.665574
246.446776	4185.842891	1.901795	-0.015681	3.670029
246.566861	4196.884632	1.906800	-0.015707	3.674447
246.947451	4207.863724	1.911805	-0.015781	3.678863
247.231704	4218.933335	1.916810	-0.015837	3.683299
247.682826	4229.925805	1.921814	-0.015924	3.687716
247.940522	4240.943004	1.926819	-0.015975	3.692118
248.288795	4251.923186	1.931824	-0.016043	3.696509
248.976130	4262.928580	1.936829	-0.016175	3.700940
249.290519	4273.990312	1.941833	-0.016237	3.705349
249.799218	4284.997617	1.946838	-0.016335	3.709751
250.157626	4295.995728	1.951843	-0.016405	3.714129
250.644423	4307.012667	1.956847	-0.016499	3.718523
251.031591	4318.045068	1.961852	-0.016574	3.722906
251.438392	4329.073822	1.966857	-0.016653	3.727286
251.641624	4340.040492	1.971862	-0.016694	3.731615
252.003846	4351.099240	1.976866	-0.016765	3.735991
252.282081	4362.080550	1.981871	-0.016820	3.740323
252.624353	4373.141326	1.986876	-0.016887	3.744687
