Wed Nov 23 18:28:15 2022

Number of Points = 2200
Depth (nm)	Load (µN)	Time (s)	Depth (V)	Load (V)
0.000000	2.454876	0.000000	-0.030796	1.140182
1.301187	8.437721	0.005005	-0.031041	1.148440
3.204720	17.620704	0.010009	-0.031401	1.160956
5.658595	28.209021	0.015014	-0.031864	1.175339
8.276595	39.197330	0.020019	-0.032358	1.190112
11.155045	50.267451	0.025024	-0.032901	1.204917
13.303430	61.512511	0.030028	-0.033307	1.219430
15.638884	72.606034	0.035033	-0.033748	1.233672
17.790399	83.744263	0.040038	-0.034154	1.247723
19.767531	94.907263	0.045043	-0.034528	1.261571
21.101875	106.104356	0.050047	-0.034781	1.275037
22.727322	117.183904	0.055052	-0.035089	1.288349
24.145580	128.344717	0.060057	-0.035358	1.301530
25.616493	139.399138	0.065061	-0.035636	1.314481
27.054887	150.480651	0.070066	-0.035909	1.327322
28.702596	161.514971	0.075071	-0.036221	1.340070
29.922094	172.674556	0.080076	-0.036453	1.352664
31.126076	183.771205	0.085080	-0.036681	1.365068
32.580713	194.797949	0.090085	-0.036957	1.377382
33.932753	205.892404	0.095090	-0.037213	1.389618
35.322271	216.964396	0.100094	-0.037477	1.401736
36.620513	228.046580	0.105099	-0.037723	1.413727
37.897572	239.114958	0.110104	-0.037965	1.425594
39.202872	250.187352	0.115109	-0.038213	1.437376
40.469297	261.256544	0.120113	-0.038454	1.449045
41.759210	272.336306	0.125118	-0.038698	1.460639
42.844982	283.414050	0.130123	-0.038905	1.472066
44.221161	294.439267	0.135128	-0.039166	1.483455
45.448684	305.516020	0.140132	-0.039399	1.494755
46.785405	316.566523	0.145137	-0.039652	1.505981
48.181397	327.608575	0.150142	-0.039917	1.517137
49.429078	338.707532	0.155146	-0.040154	1.528213
50.343018	349.826929	0.160151	-0.040328	1.539116
51.819856	360.775491	0.165156	-0.040608	1.549970
52.888649	371.904037	0.170161	-0.040811	1.560779
54.058240	382.939455	0.175165	-0.041033	1.571461
55.163505	394.011389	0.180170	-0.041244	1.582082
56.185560	405.067502	0.185175	-0.041438	1.592590
57.246365	416.122608	0.190180	-0.041640	1.603040
58.463442	427.156390	0.195184	-0.041871	1.613453
59.355861	438.252636	0.200189	-0.042041	1.623751
60.603670	449.234290	0.205194	-0.042278	1.633994
61.832252	460.307145	0.210198	-0.042511	1.644248
62.749513	471.402175	0.215203	-0.042686	1.654359
63.787585	482.416886	0.220208	-0.042884	1.664376
64.591266	493.510105	0.225213	-0.043037	1.674328
65.535108	504.536804	0.230217	-0.043217	1.684206
66.434545	515.564383	0.235222	-0.043389	1.694014
67.419897	526.636545	0.240227	-0.043576	1.703829
68.322486	537.659412	0.245232	-0.043748	1.713520
69.106870	548.699154	0.250236	-0.043898	1.723135
70.452597	559.711522	0.255241	-0.044153	1.732840
71.338445	570.792407	0.260246	-0.044322	1.742412
72.201801	581.857577	0.265250	-0.044487	1.751912
73.010100	592.898789	0.270255	-0.044642	1.761324
73.914877	603.919326	0.275260	-0.044814	1.770696
74.686437	614.983997	0.280265	-0.044962	1.780017
75.600569	626.006531	0.285269	-0.045136	1.789295
76.424413	637.049085	0.290274	-0.045293	1.798516
77.483527	648.055912	0.295279	-0.045495	1.807726
78.244690	659.158801	0.300283	-0.045640	1.816883
79.097754	670.182164	0.305288	-0.045803	1.825956
79.822825	681.211798	0.310293	-0.045942	1.834953
80.912589	692.219406	0.315298	-0.046149	1.843989
81.323084	703.334227	0.320302	-0.046229	1.852878
82.302242	714.332963	0.325307	-0.046415	1.861789
83.024646	725.374319	0.330312	-0.046554	1.870620
83.631855	736.436080	0.335317	-0.046670	1.879395
84.401247	747.409699	0.340321	-0.046817	1.888103
85.497458	758.476939	0.345326	-0.047026	1.896931
86.145718	769.518177	0.350331	-0.047150	1.905579
86.828249	780.553891	0.355335	-0.047281	1.914192
87.581725	791.591147	0.360340	-0.047425	1.922786
88.490412	802.603160	0.365345	-0.047598	1.931363
89.330635	813.644788	0.370350	-0.047759	1.939906
90.174892	824.664036	0.375354	-0.047920	1.948395
90.776583	835.769697	0.380359	-0.048035	1.956849
91.521725	846.739756	0.385364	-0.048178	1.965203
92.310027	857.784572	0.390369	-0.048329	1.973587
93.213345	868.787910	0.395373	-0.048501	1.981935
93.772287	879.881077	0.400378	-0.048608	1.990225
94.474038	890.891492	0.405383	-0.048743	1.998457
94.953238	901.952511	0.410387	-0.048836	2.006635
95.924565	912.934754	0.415392	-0.049020	2.014846
96.423149	924.002911	0.420397	-0.049117	2.022968
97.362059	935.004649	0.425402	-0.049296	2.031117
98.131516	946.027847	0.430406	-0.049443	2.039208
98.799578	957.094724	0.435411	-0.049571	2.047273
99.407872	968.141477	0.440416	-0.049688	2.055277
100.200544	979.106543	0.445421	-0.049839	2.063236
100.705906	990.199684	0.450425	-0.049937	2.071186
101.447274	1001.211844	0.455430	-0.050079	2.079105
101.956809	1012.256034	0.460435	-0.050177	2.086961
102.726895	1023.255845	0.465439	-0.050324	2.094817
103.277702	1034.327625	0.470444	-0.050430	2.102643
104.048109	1045.320937	0.475449	-0.050578	2.110436
104.642050	1056.370071	0.480454	-0.050692	2.118198
105.211533	1067.415011	0.485458	-0.050801	2.125922
105.851905	1078.424621	0.490463	-0.050924	2.133611
106.536609	1089.449565	0.495468	-0.051055	2.141292
107.005350	1100.496287	0.500472	-0.051146	2.148911
107.857146	1111.495453	0.505477	-0.051309	2.156558
108.598959	1122.525384	0.510482	-0.051451	2.164174
109.365213	1133.552622	0.515487	-0.051597	2.171766
109.829375	1144.622207	0.520491	-0.051687	2.179291
110.636996	1155.605693	0.525496	-0.051841	2.186811
111.176328	1166.665752	0.530501	-0.051945	2.194295
111.994601	1177.635496	0.535506	-0.052101	2.201756
112.587176	1188.715328	0.540510	-0.052215	2.209213
113.274617	1199.734373	0.545515	-0.052347	2.216627
113.800711	1210.778560	0.550520	-0.052449	2.223996
114.467437	1221.774413	0.555524	-0.052576	2.231341
115.120246	1232.815667	0.560529	-0.052702	2.238687
115.784249	1243.845604	0.565534	-0.052829	2.246004
116.365230	1254.866139	0.570539	-0.052941	2.253273
116.806823	1265.937680	0.575543	-0.053026	2.260522
117.433598	1276.888468	0.580548	-0.053147	2.267709
118.102446	1287.970360	0.585553	-0.053275	2.274966
118.335822	1298.987495	0.590558	-0.053321	2.282066
119.113796	1309.978176	0.595562	-0.053470	2.289242
119.767000	1321.015942	0.600567	-0.053595	2.296399
120.434255	1332.044596	0.605572	-0.053723	2.303531
120.838458	1343.081674	0.610576	-0.053802	2.310591
121.706656	1354.081954	0.615581	-0.053967	2.317703
122.036558	1365.159159	0.620586	-0.054032	2.324729
122.745559	1376.132494	0.625591	-0.054168	2.331748
123.274031	1387.187815	0.630595	-0.054270	2.338758
123.771840	1398.193373	0.635600	-0.054366	2.345711
124.340181	1409.216865	0.640605	-0.054475	2.352668
124.991672	1420.252485	0.645610	-0.054600	2.359630
125.336112	1431.285743	0.650614	-0.054668	2.366506
125.976270	1442.300358	0.655619	-0.054790	2.373411
126.662879	1453.299611	0.660624	-0.054922	2.380296
127.421453	1464.335183	0.665628	-0.055067	2.387197
128.063702	1475.361126	0.670633	-0.055190	2.394049
128.871008	1486.347146	0.675638	-0.055345	2.400889
129.307676	1497.427124	0.680643	-0.055429	2.407694
129.929272	1508.461638	0.685647	-0.055549	2.414488
130.124969	1519.484481	0.690652	-0.055588	2.421172
130.542307	1530.496955	0.695657	-0.055669	2.427874
131.124997	1541.502809	0.700661	-0.055781	2.434587
131.871714	1552.520014	0.705666	-0.055924	2.441319
132.434172	1563.549508	0.710671	-0.056032	2.448005
132.823280	1574.619257	0.715676	-0.056108	2.454662
133.145637	1585.601697	0.720680	-0.056171	2.461236
133.760756	1596.619034	0.725685	-0.056289	2.467870
134.274604	1607.664910	0.730690	-0.056388	2.474483
134.969278	1618.640293	0.735695	-0.056522	2.481072
135.396798	1629.718564	0.740699	-0.056605	2.487652
136.259989	1640.691753	0.745704	-0.056769	2.494236
136.756057	1651.735800	0.750709	-0.056865	2.500774
137.189249	1662.771304	0.755713	-0.056949	2.507278
137.753471	1673.803625	0.760718	-0.057058	2.513788
138.312164	1684.790746	0.765723	-0.057165	2.520254
138.923728	1695.822542	0.770728	-0.057283	2.526739
139.370710	1706.888407	0.775732	-0.057369	2.533196
139.752244	1717.846204	0.780737	-0.057444	2.539562
140.411840	1728.886668	0.785742	-0.057570	2.546011
141.072072	1739.917026	0.790747	-0.057697	2.552438
141.741124	1750.923386	0.795751	-0.057825	2.558836
142.365181	1761.944669	0.800756	-0.057945	2.565218
142.833100	1773.003385	0.805761	-0.058035	2.571577
143.146102	1784.081854	0.810765	-0.058097	2.577903
143.677021	1795.016765	0.815770	-0.058199	2.584173
144.242552	1806.042249	0.820775	-0.058308	2.590484
145.011770	1817.049394	0.825780	-0.058455	2.596805
145.319369	1828.104881	0.830784	-0.058515	2.603056
145.715018	1839.122887	0.835789	-0.058592	2.609286
146.295564	1850.137323	0.840794	-0.058704	2.615532
146.706504	1861.151796	0.845799	-0.058784	2.621733
147.327118	1872.161562	0.850803	-0.058903	2.627954
147.644446	1883.212688	0.855808	-0.058965	2.634129
148.098904	1894.227600	0.860813	-0.059053	2.640294
148.702920	1905.226721	0.865817	-0.059169	2.646462
149.334953	1916.252223	0.870822	-0.059291	2.652635
150.130979	1927.255926	0.875827	-0.059443	2.658810
150.304861	1938.320697	0.880832	-0.059478	2.664895
150.667037	1949.349650	0.885836	-0.059549	2.670980
150.953128	1960.352002	0.890841	-0.059605	2.677023
151.416663	1971.364327	0.895846	-0.059695	2.683089
152.070448	1982.355924	0.900850	-0.059820	2.689162
152.719646	1993.395464	0.905855	-0.059945	2.695246
153.316445	2004.406104	0.910860	-0.060060	2.701292
153.842140	2015.458200	0.915865	-0.060161	2.707334
154.279199	2026.458881	0.920869	-0.060246	2.713320
154.830166	2037.469007	0.925874	-0.060352	2.719317
155.273099	2048.490767	0.930879	-0.060438	2.725289
156.014284	2059.503969	0.935884	-0.060580	2.731293
156.389449	2070.520999	0.940888	-0.060653	2.737224
156.801414	2081.546760	0.945893	-0.060733	2.743154
157.264372	2092.563265	0.950898	-0.060822	2.749073
157.773366	2103.583213	0.955902	-0.060921	2.754990
158.083007	2114.608102	0.960907	-0.060981	2.760863
158.608023	2125.622258	0.965912	-0.061083	2.766754
158.854051	2136.665525	0.970917	-0.061132	2.772602
159.365216	2147.636115	0.975921	-0.061230	2.778442
159.657280	2158.702204	0.980926	-0.061288	2.784284
160.439388	2169.673601	0.985931	-0.061437	2.790144
160.748382	2180.735711	0.990936	-0.061498	2.795962
161.178826	2191.745710	0.995940	-0.061581	2.801761
161.606121	2202.757756	1.000945	-0.061664	2.807548
162.093861	2213.789400	1.005950	-0.061759	2.813342
162.450706	2224.799691	1.010954	-0.061828	2.819093
163.115719	2235.792706	1.015959	-0.061956	2.824872
163.555781	2246.843352	1.020964	-0.062041	2.830633
163.893182	2257.871512	1.025969	-0.062107	2.836355
164.400796	2268.874122	1.030973	-0.062205	2.842078
165.085079	2279.862794	1.035978	-0.062336	2.847811
165.486324	2290.915069	1.040983	-0.062414	2.853520
166.195755	2301.917247	1.045988	-0.062550	2.859240
166.526587	2312.959133	1.050992	-0.062615	2.864909
166.821156	2323.998724	1.055997	-0.062673	2.870561
167.254213	2334.979102	1.061002	-0.062757	2.876193
167.830508	2346.023512	1.066006	-0.062868	2.881868
168.138590	2357.028234	1.071011	-0.062928	2.887470
168.565406	2368.068625	1.076016	-0.063011	2.893098
168.727318	2379.082686	1.081021	-0.063044	2.898661
169.164629	2390.070144	1.086025	-0.063129	2.904242
169.526620	2401.120939	1.091030	-0.063200	2.909832
170.048981	2412.118291	1.096035	-0.063300	2.915409
170.479767	2423.125105	1.101039	-0.063384	2.920966
171.005054	2434.190532	1.106044	-0.063485	2.926556
171.204010	2445.187008	1.111049	-0.063525	2.932052
171.725488	2456.183921	1.116054	-0.063626	2.937586
172.165461	2467.202911	1.121058	-0.063711	2.943108
172.853511	2478.213465	1.126063	-0.063843	2.948653
173.036772	2489.283046	1.131068	-0.063880	2.954141
173.445732	2500.281051	1.136073	-0.063960	2.959617
173.836274	2511.287654	1.141077	-0.064036	2.965084
174.219712	2522.319712	1.146082	-0.064110	2.970552
174.648147	2533.334715	1.151087	-0.064193	2.976009
175.125449	2544.336519	1.156091	-0.064286	2.981456
175.399449	2555.360609	1.161096	-0.064340	2.986875
175.937972	2566.383877	1.166101	-0.064444	2.992321
176.194314	2577.391752	1.171106	-0.064494	2.997709
176.530688	2588.430479	1.176110	-0.064560	3.003114
177.158956	2599.432269	1.181115	-0.064681	3.008533
177.558991	2610.455752	1.186120	-0.064759	3.013920
177.783877	2621.503261	1.191125	-0.064804	3.019284
178.173404	2632.472138	1.196129	-0.064879	3.024624
178.626232	2643.520555	1.201134	-0.064967	3.030002
179.191349	2654.525648	1.206139	-0.065076	3.035365
179.525364	2665.559084	1.211143	-0.065141	3.040699
180.027375	2676.551773	1.216148	-0.065238	3.046028
180.375350	2687.605524	1.221153	-0.065306	3.051355
180.744489	2698.578278	1.226158	-0.065378	3.056638
181.298921	2709.602731	1.231162	-0.065485	3.061961
181.805243	2720.618492	1.236167	-0.065583	3.067265
182.147547	2731.655043	1.241172	-0.065650	3.072545
182.525693	2742.677897	1.246177	-0.065723	3.077816
182.705513	2753.715250	1.251181	-0.065760	3.083056
183.280897	2764.701689	1.256186	-0.065870	3.088318
183.464852	2775.738144	1.261191	-0.065908	3.093541
184.036967	2786.719482	1.266195	-0.066018	3.098782
184.284258	2797.770491	1.271200	-0.066067	3.104003
184.731204	2808.784919	1.276205	-0.066153	3.109225
185.042650	2819.800749	1.281210	-0.066215	3.114420
185.527725	2830.803019	1.286214	-0.066308	3.119623
185.960014	2841.832975	1.291219	-0.066392	3.124824
186.335904	2852.871453	1.296224	-0.066466	3.130012
186.722581	2863.852179	1.301228	-0.066541	3.135166
187.000588	2874.912840	1.306233	-0.066596	3.140334
187.447606	2885.892656	1.311238	-0.066682	3.145479
187.973184	2896.895004	1.316243	-0.066784	3.150636
188.226028	2907.953569	1.321247	-0.066834	3.155774
188.555025	2918.928201	1.326252	-0.066898	3.160875
189.031031	2929.966380	1.331257	-0.066990	3.166017
189.475447	2940.987297	1.336262	-0.067076	3.171138
189.779359	2952.019648	1.341266	-0.067136	3.176237
190.413189	2962.983091	1.346271	-0.067258	3.181340
190.700402	2974.061279	1.351276	-0.067314	3.186441
191.181908	2985.048474	1.356280	-0.067408	3.191519
191.376923	2996.096174	1.361285	-0.067447	3.196578
191.793570	3007.080284	1.366290	-0.067528	3.201629
192.260560	3018.115093	1.371295	-0.067618	3.206701
192.793191	3029.111005	1.376299	-0.067721	3.211757
193.119315	3040.155376	1.381304	-0.067785	3.216799
193.202365	3051.159581	1.386309	-0.067803	3.221784
193.616313	3062.179806	1.391314	-0.067883	3.226811
194.056436	3073.183071	1.396318	-0.067969	3.231826
194.586270	3084.210744	1.401323	-0.068071	3.236855
195.051282	3095.207247	1.406328	-0.068161	3.241854
195.279055	3106.273905	1.411332	-0.068206	3.246847
195.556517	3117.254980	1.416337	-0.068261	3.251800
196.039224	3128.278198	1.421342	-0.068354	3.256790
196.459239	3139.270948	1.426347	-0.068436	3.261751
196.915539	3150.329378	1.431351	-0.068524	3.266738
197.254847	3161.311483	1.436356	-0.068591	3.271668
197.455198	3172.373310	1.441361	-0.068631	3.276609
197.934748	3183.346476	1.446366	-0.068724	3.281539
198.355776	3194.379367	1.451370	-0.068805	3.286479
198.919807	3205.379462	1.456375	-0.068914	3.291416
199.297193	3216.426995	1.461380	-0.068988	3.296343
199.673704	3227.408797	1.466384	-0.069061	3.301233
200.027919	3238.461822	1.471389	-0.069130	3.306145
200.319379	3249.453478	1.476394	-0.069188	3.311014
200.805873	3260.483308	1.481399	-0.069282	3.315917
201.169580	3271.494793	1.486403	-0.069353	3.320790
201.507860	3282.527135	1.491408	-0.069419	3.325661
201.857820	3293.534098	1.496413	-0.069487	3.330516
202.182678	3304.552368	1.501417	-0.069551	3.335365
202.678468	3315.531734	1.506422	-0.069647	3.340211
203.172105	3326.604954	1.511427	-0.069742	3.345090
203.624454	3337.564071	1.516432	-0.069830	3.349908
203.952145	3348.622613	1.521436	-0.069894	3.354746
204.373415	3359.630123	1.526441	-0.069976	3.359567
204.638357	3370.662234	1.531446	-0.070028	3.364372
205.187033	3381.654898	1.536451	-0.070134	3.369188
205.456717	3392.678762	1.541455	-0.070187	3.373976
206.015324	3403.672005	1.546460	-0.070295	3.378780
206.361059	3414.728435	1.551465	-0.070362	3.383577
206.670660	3425.724415	1.556469	-0.070423	3.388338
206.968849	3436.758999	1.561474	-0.070482	3.393107
207.272628	3447.753875	1.566479	-0.070541	3.397853
207.729757	3458.794875	1.571484	-0.070630	3.402631
207.940157	3469.787158	1.576488	-0.070672	3.407351
208.329762	3480.814810	1.581493	-0.070748	3.412101
208.648004	3491.822952	1.586498	-0.070810	3.416828
208.950027	3502.848191	1.591503	-0.070870	3.421554
209.411412	3513.854502	1.596507	-0.070959	3.426283
209.569027	3524.894741	1.601512	-0.070991	3.430985
209.978657	3535.857943	1.606517	-0.071071	3.435677
210.422970	3546.917070	1.611521	-0.071157	3.440407
210.818261	3557.930636	1.616526	-0.071234	3.445106
211.247893	3568.944993	1.621531	-0.071317	3.449802
211.817341	3579.937870	1.626536	-0.071427	3.454499
212.061537	3590.989405	1.631540	-0.071475	3.459177
212.388863	3601.970154	1.636545	-0.071540	3.463828
212.828111	3613.026183	1.641550	-0.071625	3.468517
213.180375	3624.001327	1.646555	-0.071694	3.473156
213.623790	3635.032286	1.651559	-0.071779	3.477823
213.859967	3646.053526	1.656564	-0.071826	3.482455
214.455577	3657.079297	1.661569	-0.071941	3.487124
214.997581	3668.045046	1.666573	-0.072045	3.491756
215.310751	3679.114366	1.671578	-0.072107	3.496398
215.625527	3690.109565	1.676583	-0.072169	3.501004
215.919040	3701.160680	1.681588	-0.072226	3.505624
216.185652	3712.129189	1.686592	-0.072279	3.510201
216.346496	3723.184674	1.691597	-0.072312	3.514796
216.660187	3734.193781	1.696602	-0.072374	3.519382
216.961128	3745.211910	1.701606	-0.072433	3.523966
217.239578	3756.232552	1.706611	-0.072488	3.528541
217.559879	3767.236749	1.711616	-0.072551	3.533109
217.974580	3778.237647	1.716621	-0.072631	3.537679
218.154006	3789.258670	1.721625	-0.072668	3.542226
218.643927	3800.272234	1.726630	-0.072762	3.546798
218.883569	3811.307434	1.731635	-0.072810	3.551346
219.364289	3822.280113	1.736640	-0.072903	3.555888
219.686651	3833.337986	1.741644	-0.072966	3.560442
220.091531	3844.334643	1.746649	-0.073045	3.564975
220.395015	3855.355918	1.751654	-0.073105	3.569500
220.623109	3866.376295	1.756658	-0.073150	3.574011
221.032404	3877.396263	1.761663	-0.073230	3.578536
221.355501	3888.408905	1.766668	-0.073293	3.583042
221.887144	3899.405598	1.771673	-0.073395	3.587559
222.287789	3910.419855	1.776677	-0.073473	3.592063
222.701082	3921.464249	1.781682	-0.073554	3.596575
223.033159	3932.468663	1.786687	-0.073619	3.601057
223.136576	3943.523711	1.791692	-0.073641	3.605528
223.436624	3954.469182	1.796696	-0.073700	3.609971
223.872612	3965.513525	1.801701	-0.073784	3.614463
224.270124	3976.518444	1.806706	-0.073862	3.618929
224.597034	3987.558290	1.811710	-0.073926	3.623396
224.736866	3998.598284	1.816715	-0.073955	3.627837
224.917976	4009.564621	1.821720	-0.073991	3.632248
225.378582	4020.590392	1.826725	-0.074081	3.636707
225.951650	4031.617751	1.831729	-0.074191	3.641173
226.337291	4042.615210	1.836734	-0.074266	3.645602
226.465218	4053.654006	1.841739	-0.074293	3.650014
226.768270	4064.648620	1.846744	-0.074352	3.654422
227.091081	4075.681467	1.851748	-0.074416	3.658842
227.427653	4086.688156	1.856753	-0.074481	3.663247
227.752254	4097.762721	1.861758	-0.074545	3.667673
228.029318	4108.749791	1.866762	-0.074600	3.672054
228.411849	4119.779595	1.871767	-0.074674	3.676457
228.708629	4130.798642	1.876772	-0.074733	3.680842
229.354820	4141.792478	1.881777	-0.074857	3.685248
229.884931	4152.807212	1.886781	-0.074959	3.689644
230.201271	4163.857691	1.891786	-0.075021	3.694027
230.417257	4174.853058	1.896791	-0.075064	3.698373
230.919193	4185.882958	1.901795	-0.075161	3.702757
231.364124	4196.887766	1.906800	-0.075247	3.707120
231.806625	4207.901775	1.911805	-0.075333	3.711481
232.124935	4218.918071	1.916810	-0.075396	3.715824
232.239298	4229.952160	1.921814	-0.075420	3.720150
232.584894	4240.956460	1.926819	-0.075487	3.724481
232.688238	4251.987317	1.931824	-0.075509	3.728794
232.923342	4262.974738	1.936829	-0.075556	3.733098
233.324981	4274.004563	1.941833	-0.075634	3.737430
233.808686	4284.980689	1.946838	-0.075728	3.741745
234.234516	4296.039439	1.951843	-0.075810	3.746080
234.377830	4307.041841	1.956847	-0.075840	3.750361
234.811345	4318.069100	1.961852	-0.075924	3.754675
235.105366	4329.070729	1.966857	-0.075982	3.758960
