Wed Nov 23 19:44:20 2022

Number of Points = 2200
Depth (nm)	Load (µN)	Time (s)	Depth (V)	Load (V)
-0.494179	1.325265	0.000000	0.047915	0.916812
0.000000	7.436543	0.005005	0.047821	0.926906
0.845512	16.321702	0.010009	0.047660	0.941462
1.519743	26.870667	0.015014	0.047531	0.958267
2.308985	37.853476	0.020019	0.047380	0.975505
2.753347	49.072942	0.025024	0.047294	0.992604
3.910146	60.069528	0.030028	0.047074	1.009473
4.614070	71.305220	0.035033	0.046939	1.026167
5.728676	82.400258	0.040038	0.046728	1.042609
7.901060	93.297585	0.045043	0.046317	1.059064
9.093667	104.641498	0.050047	0.046091	1.075382
9.770793	115.932237	0.055052	0.045961	1.091126
10.898390	126.974348	0.060057	0.045746	1.106535
12.351508	138.048576	0.065061	0.045471	1.121932
13.364441	149.279183	0.070066	0.045278	1.137112
14.375708	160.413849	0.075071	0.045086	1.151968
15.374581	171.523123	0.080076	0.044896	1.166595
16.601908	182.600911	0.085080	0.044663	1.181106
17.485882	193.782663	0.090085	0.044494	1.195413
18.422565	204.875659	0.095090	0.044315	1.209465
19.558405	215.975317	0.100094	0.044099	1.223452
20.494334	227.088692	0.105099	0.043921	1.237208
21.327743	238.211242	0.110104	0.043762	1.250779
22.617935	249.226888	0.115109	0.043517	1.264274
23.754201	260.338913	0.120113	0.043301	1.277672
24.553504	271.498631	0.125118	0.043148	1.290844
25.549301	282.615030	0.130123	0.042959	1.303915
26.412148	293.671409	0.135128	0.042794	1.316734
27.501137	304.714887	0.140132	0.042587	1.329505
28.670162	315.764939	0.145137	0.042365	1.342194
29.647879	326.890300	0.150142	0.042179	1.354769
30.422303	338.010692	0.155146	0.042031	1.367143
31.071381	349.121612	0.160151	0.041906	1.379346
31.988679	360.128591	0.165156	0.041731	1.391435
33.132637	371.164105	0.170161	0.041514	1.403536
33.970725	382.286824	0.175165	0.041354	1.415508
34.893078	393.345060	0.180170	0.041178	1.427344
35.666137	404.436261	0.185175	0.041030	1.439061
36.336582	415.529105	0.190180	0.040902	1.450646
37.323122	426.528430	0.195184	0.040714	1.462160
38.274245	437.612801	0.200189	0.040533	1.473656
39.142430	448.663556	0.205194	0.040367	1.484999
40.142463	459.740910	0.210198	0.040177	1.496329
40.964923	470.807222	0.215203	0.040020	1.507500
41.941051	481.836212	0.220208	0.039834	1.518605
42.802128	492.914429	0.225213	0.039669	1.529637
43.944069	503.960997	0.230217	0.039452	1.540656
44.578204	515.067891	0.235222	0.039331	1.551480
45.317035	526.120888	0.240227	0.039189	1.562213
46.059223	537.142713	0.245232	0.039047	1.572844
47.350802	548.131839	0.250236	0.038802	1.583556
48.084667	559.265178	0.255241	0.038662	1.594145
49.063691	570.285751	0.260246	0.038475	1.604640
49.759982	581.395418	0.265250	0.038342	1.615056
50.456072	592.440179	0.270255	0.038209	1.625345
51.354548	603.427752	0.275260	0.038037	1.635583
52.271381	614.512345	0.280265	0.037863	1.645849
53.002455	625.582908	0.285269	0.037723	1.655981
53.990332	636.553983	0.290274	0.037535	1.666042
54.677746	647.682075	0.295279	0.037403	1.676087
55.472286	658.708633	0.300283	0.037251	1.686017
56.188724	669.769505	0.305288	0.037114	1.695893
56.927519	680.810677	0.310293	0.036972	1.705702
57.707921	691.833802	0.315298	0.036823	1.715452
58.648979	702.862441	0.320302	0.036644	1.725199
59.622022	713.904338	0.325307	0.036459	1.734912
60.416403	724.962329	0.330312	0.036307	1.744531
61.091459	736.038538	0.335317	0.036177	1.754076
61.738887	747.079916	0.340321	0.036053	1.763533
62.480863	758.114471	0.345326	0.035911	1.772960
63.398598	769.115806	0.350331	0.035736	1.782361
64.205321	780.179057	0.355335	0.035582	1.791731
65.028980	791.194020	0.360340	0.035425	1.801018
66.009751	802.241113	0.365345	0.035238	1.810327
66.961250	813.267304	0.370350	0.035057	1.819563
67.782539	824.334408	0.375354	0.034900	1.828748
68.471822	835.406022	0.380359	0.034768	1.837853
68.955700	846.447608	0.385364	0.034675	1.846832
69.908546	857.447763	0.390369	0.034493	1.855864
70.608500	868.500331	0.395373	0.034359	1.864824
71.547497	879.494579	0.400378	0.034180	1.873761
72.268796	890.595292	0.405383	0.034042	1.882678
72.769258	901.648534	0.410387	0.033945	1.891456
73.454216	912.638817	0.415392	0.033814	1.900195
74.358582	923.655046	0.420397	0.033642	1.908972
75.325502	934.687472	0.425402	0.033457	1.917737
75.918487	945.790868	0.430406	0.033343	1.926418
76.675920	956.774591	0.435411	0.033199	1.935011
77.588859	967.796046	0.440416	0.033025	1.943635
78.184169	978.851824	0.445421	0.032910	1.952164
78.915309	989.902168	0.450425	0.032770	1.960687
79.586888	1000.943796	0.455430	0.032641	1.969151
80.317699	1011.947574	0.460435	0.032502	1.977565
80.927827	1023.014110	0.465439	0.032384	1.985959
81.579600	1034.033148	0.470444	0.032259	1.994292
82.340268	1045.057462	0.475449	0.032114	2.002623
83.297564	1056.074122	0.480454	0.031931	2.010962
83.912006	1067.150873	0.485458	0.031813	2.019224
84.591328	1078.166565	0.490463	0.031683	2.027425
85.044898	1089.234255	0.495468	0.031595	2.035573
85.631622	1100.236426	0.500472	0.031483	2.043675
86.326896	1111.278793	0.505477	0.031349	2.051799
87.022256	1122.266660	0.510482	0.031216	2.059853
87.816693	1133.321464	0.515487	0.031064	2.067947
88.425110	1144.364361	0.520491	0.030948	2.075955
89.165625	1155.373089	0.525496	0.030806	2.083940
89.962881	1166.409873	0.530501	0.030654	2.091928
90.383681	1177.487681	0.535506	0.030572	2.099823
91.171735	1188.425253	0.540510	0.030421	2.107678
91.847097	1199.526147	0.545515	0.030292	2.115591
92.375471	1210.546836	0.550520	0.030190	2.123384
93.113184	1221.551595	0.555524	0.030049	2.131186
93.751235	1232.596601	0.560529	0.029926	2.138964
94.456616	1243.604472	0.565534	0.029791	2.146704
95.049018	1254.686452	0.570539	0.029677	2.154440
95.498369	1265.691208	0.575543	0.029590	2.162062
96.071762	1276.738650	0.580548	0.029480	2.169715
96.588987	1287.746722	0.585553	0.029380	2.177301
97.366708	1298.752335	0.590558	0.029231	2.184919
97.931028	1309.799499	0.595562	0.029123	2.192489
98.268301	1320.866284	0.600567	0.029057	2.199995
98.799985	1331.841185	0.605572	0.028954	2.207457
99.423751	1342.885760	0.610576	0.028835	2.214962
99.882803	1353.907157	0.615581	0.028746	2.222388
100.550748	1364.944137	0.620586	0.028618	2.229846
101.019445	1375.965382	0.625591	0.028527	2.237225
101.517720	1387.021744	0.630595	0.028431	2.244609
101.911077	1398.023484	0.635600	0.028354	2.251910
102.547487	1409.050948	0.640605	0.028232	2.259256
103.052269	1420.061559	0.645610	0.028135	2.266540
103.640682	1431.093705	0.650614	0.028021	2.273831
104.368669	1442.110040	0.655619	0.027882	2.281119
104.881060	1453.137197	0.660624	0.027783	2.288345
105.365698	1464.184779	0.665628	0.027690	2.295554
105.850158	1475.189688	0.670633	0.027596	2.302714
106.489809	1486.223928	0.675638	0.027473	2.309902
107.085942	1497.226868	0.680643	0.027359	2.317039
107.474496	1508.321946	0.685647	0.027283	2.324169
107.882106	1519.299249	0.690652	0.027204	2.331206
108.395782	1530.336825	0.695657	0.027105	2.338282
108.827891	1541.356251	0.700661	0.027021	2.345308
109.425494	1552.358546	0.705666	0.026906	2.352337
110.423818	1563.352188	0.710671	0.026716	2.359422
110.857555	1574.437728	0.715676	0.026632	2.366426
111.340302	1585.459914	0.720680	0.026539	2.373380
111.711582	1596.475377	0.725685	0.026466	2.380287
112.341008	1607.476647	0.730690	0.026345	2.387217
113.111451	1618.520661	0.735695	0.026198	2.394182
113.600391	1629.529051	0.740699	0.026104	2.401048
114.270087	1640.569118	0.745704	0.025975	2.407950
114.731992	1651.605123	0.750709	0.025886	2.414787
115.290108	1662.585584	0.755713	0.025778	2.421591
115.843059	1673.658897	0.760718	0.025672	2.428431
116.314024	1684.656007	0.765723	0.025581	2.435188
116.965977	1695.676013	0.770728	0.025456	2.441977
117.341679	1706.738516	0.775732	0.025382	2.448718
117.788703	1717.713796	0.780737	0.025296	2.455402
118.225393	1728.777541	0.785742	0.025211	2.462118
118.839527	1739.772867	0.790747	0.025093	2.468810
119.247918	1750.808136	0.795751	0.025014	2.475467
119.586293	1761.847118	0.800756	0.024948	2.482095
120.000382	1772.859014	0.805761	0.024867	2.488703
120.706407	1783.851755	0.810765	0.024732	2.495339
121.243593	1794.893657	0.815770	0.024628	2.501954
121.775947	1805.903089	0.820775	0.024526	2.508531
122.242930	1816.962348	0.825780	0.024435	2.515107
122.584964	1827.966737	0.830784	0.024369	2.521610
123.072149	1838.985395	0.835789	0.024274	2.528132
123.613483	1850.006275	0.840794	0.024170	2.534649
124.156671	1861.020425	0.845799	0.024065	2.541145
124.514565	1872.063241	0.850803	0.023996	2.547607
124.862282	1883.105690	0.855808	0.023928	2.554050
125.273627	1894.088979	0.860813	0.023848	2.560454
125.802786	1905.125731	0.865817	0.023746	2.566895
126.299250	1916.165490	0.870822	0.023650	2.573315
126.899841	1927.178957	0.875827	0.023534	2.579723
127.176316	1938.198822	0.880832	0.023480	2.586059
127.657530	1949.220703	0.885836	0.023387	2.592418
127.954411	1960.222645	0.890841	0.023328	2.598717
128.521016	1971.231987	0.895846	0.023219	2.605053
129.179919	1982.265074	0.900850	0.023093	2.611404
129.605812	1993.295946	0.905855	0.023010	2.617696
129.874102	2004.312597	0.910860	0.022957	2.623937
130.413618	2015.332434	0.915865	0.022853	2.630213
131.023182	2026.333491	0.920869	0.022736	2.636476
131.452284	2037.394454	0.925874	0.022653	2.642725
131.724247	2048.395838	0.930879	0.022599	2.648898
132.074248	2059.411066	0.935884	0.022531	2.655079
132.264787	2070.422507	0.940888	0.022492	2.661214
132.817417	2081.433278	0.945893	0.022386	2.667399
133.210228	2092.445164	0.950898	0.022309	2.673542
133.978927	2103.441437	0.955902	0.022162	2.679728
134.673946	2114.470982	0.960907	0.022029	2.685904
135.017596	2125.550822	0.965912	0.021962	2.692033
135.272091	2136.531312	0.970917	0.021912	2.698078
135.665110	2147.572064	0.975921	0.021835	2.704166
136.190857	2158.564115	0.980926	0.021734	2.710237
136.764866	2169.577777	0.985931	0.021623	2.716314
137.150839	2180.649017	0.990936	0.021548	2.722376
137.361047	2191.659115	0.995940	0.021506	2.728362
137.937200	2202.633546	1.000945	0.021395	2.734378
138.280049	2213.690564	1.005950	0.021328	2.740385
138.714137	2224.687731	1.010954	0.021244	2.746362
139.162272	2235.737089	1.015959	0.021157	2.752356
139.456914	2246.740546	1.020964	0.021099	2.758287
139.825343	2257.768967	1.025969	0.021027	2.764230
140.216425	2268.770456	1.030973	0.020951	2.770151
140.868392	2279.780289	1.035978	0.020826	2.776106
141.421623	2290.818307	1.040983	0.020719	2.782047
141.855881	2301.833830	1.045988	0.020635	2.787943
142.206565	2312.863747	1.050992	0.020567	2.793821
142.630192	2323.877981	1.055997	0.020484	2.799690
143.153257	2334.883703	1.061002	0.020384	2.805559
143.674489	2345.929183	1.066006	0.020283	2.811435
143.908153	2356.953401	1.071011	0.020236	2.817241
144.274717	2367.956993	1.076016	0.020165	2.823047
144.340571	2378.990007	1.081021	0.020150	2.828806
144.955517	2390.000412	1.086025	0.020032	2.834631
145.281634	2401.010435	1.091030	0.019968	2.840397
145.715711	2412.044829	1.096035	0.019884	2.846181
146.147397	2423.078749	1.101039	0.019800	2.851953
146.475548	2434.063908	1.106044	0.019736	2.857671
146.729550	2445.073095	1.111049	0.019685	2.863378
147.276502	2456.111588	1.116054	0.019580	2.869136
147.584423	2467.129488	1.121058	0.019519	2.874833
148.326056	2478.133285	1.126063	0.019378	2.880580
148.737124	2489.174041	1.131068	0.019298	2.886282
149.156512	2500.213718	1.136073	0.019216	2.891974
149.467244	2511.194699	1.141077	0.019155	2.897608
150.095174	2522.206071	1.146082	0.019035	2.903295
150.549485	2533.230034	1.151087	0.018947	2.908951
150.764484	2544.307800	1.156091	0.018904	2.914585
150.899987	2555.289759	1.161096	0.018875	2.920148
151.228945	2566.313771	1.166101	0.018811	2.925752
151.709030	2577.319405	1.171106	0.018718	2.931358
152.255597	2588.299622	1.176110	0.018613	2.936951
152.613528	2599.358857	1.181115	0.018543	2.942544
152.883167	2610.402648	1.186120	0.018490	2.948106
153.234230	2621.371449	1.191125	0.018421	2.953631
153.909172	2632.406537	1.196129	0.018292	2.959228
154.419982	2643.409357	1.201134	0.018193	2.964774
154.844853	2654.466347	1.206139	0.018111	2.970323
155.092921	2665.480033	1.211143	0.018061	2.975814
155.227557	2676.508203	1.216148	0.018033	2.981284
155.670427	2687.474377	1.221153	0.017948	2.986760
156.318273	2698.509059	1.226158	0.017823	2.992290
156.654564	2709.551451	1.231162	0.017757	2.997768
156.891180	2720.584594	1.236167	0.017710	3.003215
157.065110	2731.584178	1.241172	0.017675	3.008628
157.658384	2742.572202	1.246177	0.017561	3.014086
158.043453	2753.613938	1.251181	0.017486	3.019530
158.658047	2764.625071	1.256186	0.017368	3.024983
158.943741	2775.652603	1.261191	0.017312	3.030386
159.187207	2786.696053	1.266195	0.017263	3.035781
159.405414	2797.692806	1.271200	0.017219	3.041140
159.950525	2808.688290	1.276205	0.017114	3.046536
160.377202	2819.725679	1.281210	0.017032	3.051926
160.892557	2830.707936	1.286214	0.016932	3.057292
161.277474	2841.747021	1.291219	0.016857	3.062657
161.585668	2852.789060	1.296224	0.016797	3.068003
161.931777	2863.784651	1.301228	0.016729	3.073323
162.252464	2874.840540	1.306233	0.016666	3.078659
162.701562	2885.796028	1.311238	0.016579	3.083955
163.331883	2896.852024	1.316243	0.016458	3.089317
163.411443	2907.870725	1.321247	0.016441	3.094573
163.803321	2918.895257	1.326252	0.016364	3.099867
164.151756	2929.885396	1.331257	0.016296	3.105129
164.630204	2940.939897	1.336262	0.016204	3.110431
165.026241	2951.909908	1.341266	0.016127	3.115673
165.487938	2962.965503	1.346271	0.016037	3.120955
165.666544	2973.977257	1.351276	0.016001	3.126168
166.191828	2984.981164	1.356280	0.015900	3.131417
166.663636	2995.974590	1.361285	0.015808	3.136644
167.302157	3007.017816	1.366290	0.015686	3.141909
167.336283	3018.068877	1.371295	0.015677	3.147086
167.487925	3029.074256	1.376299	0.015646	3.152249
167.712341	3040.088557	1.381304	0.015601	3.157417
168.054674	3051.098677	1.386309	0.015534	3.162591
168.576293	3062.096223	1.391314	0.015433	3.167775
168.942943	3073.128701	1.396318	0.015362	3.172946
169.150139	3084.155345	1.401323	0.015320	3.178084
169.639742	3095.148704	1.406328	0.015225	3.183236
169.921448	3106.193941	1.411332	0.015170	3.188376
170.336244	3117.187366	1.416337	0.015089	3.193501
170.960536	3128.207827	1.421342	0.014969	3.198659
171.212378	3139.242840	1.426347	0.014919	3.203765
171.804319	3150.241207	1.431351	0.014806	3.208891
171.934365	3161.284723	1.436356	0.014779	3.213968
172.243560	3172.268644	1.441361	0.014718	3.219034
172.583222	3183.312672	1.446366	0.014651	3.224123
172.709853	3194.329242	1.451370	0.014625	3.229164
173.023133	3205.334606	1.456375	0.014563	3.234216
173.440535	3216.348059	1.461380	0.014482	3.239277
173.867809	3227.370812	1.466384	0.014399	3.244336
174.342071	3238.366643	1.471389	0.014308	3.249381
174.688454	3249.389928	1.476394	0.014240	3.254414
175.167517	3260.416682	1.481399	0.014147	3.259457
175.764782	3271.424275	1.486403	0.014033	3.264500
176.116302	3282.446489	1.491408	0.013964	3.269509
176.588227	3293.473675	1.496413	0.013873	3.274528
177.063344	3304.451930	1.501417	0.013781	3.279518
177.925582	3315.492036	1.506422	0.013616	3.284578
178.045311	3326.548000	1.511427	0.013591	3.289541
178.374816	3337.531512	1.516432	0.013526	3.294492
178.635102	3348.565629	1.521436	0.013475	3.299449
178.935494	3359.561694	1.526441	0.013416	3.304386
179.214881	3370.615603	1.531446	0.013361	3.309339
179.437614	3381.609628	1.536451	0.013316	3.314251
179.605999	3392.624362	1.541455	0.013282	3.319158
180.175701	3403.607233	1.546460	0.013172	3.324094
180.946514	3414.646749	1.551465	0.013025	3.329072
181.572919	3425.636929	1.556469	0.012905	3.334004
181.971893	3436.696330	1.561474	0.012827	3.338929
182.362743	3447.681791	1.566479	0.012751	3.343814
182.791568	3458.726990	1.571484	0.012668	3.348723
183.060336	3469.750713	1.576488	0.012614	3.353595
183.563152	3480.743996	1.581493	0.012517	3.358476
183.864623	3491.774065	1.586498	0.012458	3.363341
184.214689	3502.799580	1.591503	0.012390	3.368202
184.398042	3513.808760	1.596507	0.012353	3.373029
184.850859	3524.797661	1.601512	0.012265	3.377873
185.506154	3535.807012	1.606517	0.012139	3.382744
185.969615	3546.865776	1.611521	0.012050	3.387605
186.239678	3557.878368	1.616526	0.011996	3.392417
186.437470	3568.899666	1.621531	0.011956	3.397216
186.690518	3579.912640	1.626536	0.011906	3.402011
187.007447	3590.920678	1.631540	0.011844	3.406805
187.543858	3601.899267	1.636545	0.011740	3.411606
188.021813	3612.947832	1.641550	0.011648	3.416423
188.290307	3623.982862	1.646555	0.011595	3.421203
188.573616	3634.980012	1.651559	0.011539	3.425961
189.000665	3645.996507	1.656564	0.011456	3.430738
189.287409	3657.011533	1.661569	0.011400	3.435491
189.817264	3668.023650	1.666573	0.011298	3.440265
190.119152	3679.072261	1.671578	0.011238	3.445021
190.458678	3690.076224	1.676583	0.011172	3.449755
190.507670	3701.067360	1.681588	0.011160	3.454444
191.008247	3712.087635	1.686592	0.011063	3.459191
191.289220	3723.117153	1.691597	0.011008	3.463910
192.146965	3734.129050	1.696602	0.010844	3.468682
192.229892	3745.157736	1.701606	0.010826	3.473364
192.752531	3756.136649	1.706611	0.010725	3.478071
193.087602	3767.177249	1.711616	0.010659	3.482774
193.609720	3778.186234	1.716621	0.010559	3.487480
193.833220	3789.220485	1.721625	0.010514	3.492156
193.991215	3800.217880	1.726630	0.010482	3.496802
194.249917	3811.260499	1.731635	0.010430	3.501472
194.639946	3822.257670	1.736640	0.010354	3.506133
195.040604	3833.257248	1.741644	0.010277	3.510789
195.496694	3844.296998	1.746649	0.010188	3.515462
195.689303	3855.315990	1.751654	0.010149	3.520090
196.076725	3866.332593	1.756658	0.010074	3.524733
196.220195	3877.374922	1.761663	0.010044	3.529353
196.583552	3888.345905	1.766668	0.009973	3.533962
196.872148	3899.380370	1.771673	0.009916	3.538583
197.086388	3910.393248	1.776677	0.009874	3.543180
197.410966	3921.392277	1.781682	0.009810	3.547778
197.615948	3932.432171	1.786687	0.009769	3.552374
197.895733	3943.426326	1.791692	0.009714	3.556953
198.378993	3954.448831	1.796696	0.009620	3.561560
198.781250	3965.468511	1.801701	0.009542	3.566152
199.072672	3976.479526	1.806706	0.009484	3.570721
199.453460	3987.495306	1.811710	0.009410	3.575296
199.705630	3998.517529	1.816715	0.009360	3.579854
200.133750	4009.506055	1.821720	0.009277	3.584412
200.441345	4020.554221	1.826725	0.009217	3.588974
200.740426	4031.567885	1.831729	0.009158	3.593516
201.182297	4042.604166	1.836734	0.009072	3.598077
201.446141	4053.591500	1.841739	0.009020	3.602593
201.964415	4064.583159	1.846744	0.008920	3.607132
202.181460	4075.638012	1.851748	0.008877	3.611659
202.709827	4086.631686	1.856753	0.008775	3.616189
202.879565	4097.697373	1.861758	0.008740	3.620703
203.311515	4108.711180	1.866762	0.008656	3.625219
203.607922	4119.741956	1.871767	0.008598	3.629721
203.880165	4130.759920	1.876772	0.008544	3.634211
204.079047	4141.758646	1.881777	0.008504	3.638679
204.505376	4152.791334	1.886781	0.008421	3.643179
204.781197	4163.818968	1.891786	0.008367	3.647656
205.141424	4174.805531	1.896791	0.008297	3.652119
205.492867	4185.816717	1.901795	0.008228	3.656586
205.868644	4196.854707	1.906800	0.008155	3.661061
206.154850	4207.858501	1.911805	0.008098	3.665507
206.584817	4218.875518	1.916810	0.008015	3.669968
206.839690	4229.893791	1.921814	0.007964	3.674405
207.422594	4240.882508	1.926819	0.007852	3.678860
207.777206	4251.949597	1.931824	0.007783	3.683317
208.251466	4262.961484	1.936829	0.007691	3.687759
208.291063	4273.964311	1.941833	0.007681	3.692146
208.696003	4284.952327	1.946838	0.007602	3.696560
209.008732	4295.976329	1.951843	0.007541	3.700974
209.334181	4307.015174	1.956847	0.007477	3.705389
209.611471	4318.002798	1.961852	0.007422	3.709774
209.908596	4329.041106	1.966857	0.007364	3.714176
210.167022	4340.039643	1.971862	0.007313	3.718552
210.640513	4351.060381	1.976866	0.007221	3.722955
210.829362	4362.098717	1.981871	0.007183	3.727330
211.205104	4373.084344	1.986876	0.007110	3.731698
211.402499	4384.118205	1.991881	0.007070	3.736061
211.775976	4395.114071	1.996885	0.006997	3.740423
211.869768	4406.153941	2.001890	0.006977	3.744768
212.401449	4417.133610	2.006895	0.006874	3.749129
