Wed Nov 23 19:44:20 2022

Number of Points = 2200
Depth (nm)	Load (µN)	Time (s)	Depth (V)	Load (V)
-2.647188	1.265546	0.000000	-0.012872	1.092477
0.000000	7.776871	0.005005	-0.013370	1.102478
1.816177	17.303742	0.010009	-0.013713	1.115953
3.305410	28.152827	0.015014	-0.013995	1.130825
4.452696	39.281214	0.020019	-0.014213	1.145700
5.378598	50.442840	0.025024	-0.014390	1.160322
6.360168	61.558605	0.030028	-0.014577	1.174730
6.990459	72.741219	0.035033	-0.014698	1.188886
7.660269	83.857802	0.040038	-0.014826	1.202813
8.116817	95.002881	0.045043	-0.014915	1.216519
9.295547	105.904741	0.050047	-0.015139	1.230098
11.387293	116.891357	0.055052	-0.015534	1.244021
12.775907	127.979306	0.060057	-0.015797	1.257607
16.054421	138.888054	0.065061	-0.016415	1.271635
17.236994	150.251969	0.070066	-0.016640	1.285156
18.754999	161.362381	0.075071	-0.016927	1.298387
19.795935	172.555613	0.080076	-0.017125	1.311381
21.366519	183.528754	0.085080	-0.017423	1.324218
22.550210	194.670098	0.090085	-0.017648	1.336960
24.141463	205.657023	0.095090	-0.017949	1.349574
25.429447	216.794696	0.100094	-0.018193	1.362114
26.516058	227.940821	0.105099	-0.018400	1.374470
27.666352	238.971470	0.110104	-0.018619	1.386618
28.962799	250.054643	0.115109	-0.018865	1.398770
29.808591	261.190887	0.120113	-0.019026	1.410702
30.974081	272.211492	0.125118	-0.019248	1.422534
31.937019	283.301236	0.130123	-0.019431	1.434263
32.985294	294.371155	0.135128	-0.019630	1.445908
34.042229	305.443227	0.140132	-0.019831	1.457464
35.215492	316.454190	0.145137	-0.020054	1.468909
36.267179	327.543361	0.150142	-0.020254	1.480300
37.356112	338.629486	0.155146	-0.020461	1.491613
38.441881	349.674391	0.160151	-0.020668	1.502799
39.607842	360.717838	0.165156	-0.020889	1.513928
40.285880	371.858918	0.170161	-0.021019	1.524901
41.327386	382.866350	0.175165	-0.021218	1.535792
42.255474	393.927274	0.180170	-0.021394	1.546618
43.263562	404.998470	0.185175	-0.021586	1.557405
44.004102	416.057022	0.190180	-0.021728	1.568015
45.073630	427.091980	0.195184	-0.021932	1.578641
45.986647	438.142486	0.200189	-0.022106	1.589159
47.114386	449.184957	0.205194	-0.022320	1.599669
47.918327	460.268265	0.210198	-0.022473	1.610043
48.632234	471.385402	0.215203	-0.022610	1.620351
49.180160	482.405141	0.220208	-0.022716	1.630453
50.251345	493.395914	0.225213	-0.022919	1.640633
51.187954	504.436925	0.230217	-0.023098	1.650752
52.188312	515.485236	0.235222	-0.023288	1.660835
53.150827	526.535764	0.240227	-0.023472	1.670847
54.031585	537.603300	0.245232	-0.023640	1.680788
54.784381	548.663221	0.250236	-0.023784	1.690624
55.752195	559.698351	0.255241	-0.023968	1.700448
56.703880	570.691325	0.260246	-0.024149	1.710173
57.473233	581.823068	0.265250	-0.024296	1.719907
58.002413	592.864269	0.270255	-0.024399	1.729436
59.208096	603.834516	0.275260	-0.024627	1.739055
60.059395	614.875354	0.280265	-0.024790	1.748574
60.901050	625.984063	0.285269	-0.024951	1.758095
61.662818	636.982931	0.290274	-0.025096	1.767451
62.710728	648.038838	0.295279	-0.025296	1.776886
63.337628	659.101964	0.300283	-0.025416	1.786156
64.228207	670.114953	0.305288	-0.025586	1.795412
64.961150	681.168381	0.310293	-0.025726	1.804609
65.758200	692.203777	0.315298	-0.025878	1.813762
66.454870	703.251733	0.320302	-0.026012	1.822850
67.307773	714.278820	0.325307	-0.026175	1.831920
67.890665	725.367665	0.330312	-0.026287	1.840919
68.732746	736.351210	0.335317	-0.026447	1.849862
69.219693	747.451195	0.340321	-0.026542	1.858756
70.103179	758.411454	0.345326	-0.026710	1.867607
70.836482	769.478086	0.350331	-0.026850	1.876457
71.677936	780.502499	0.355335	-0.027011	1.885262
72.597774	791.506242	0.360340	-0.027186	1.894030
73.450038	802.574379	0.365345	-0.027349	1.902790
74.297453	813.603941	0.370350	-0.027511	1.911477
75.137708	824.660825	0.375354	-0.027671	1.920145
75.488958	835.734545	0.380359	-0.027740	1.928657
76.209373	846.746641	0.385364	-0.027878	1.937181
76.910221	857.731315	0.390369	-0.028012	1.945642
77.647262	868.802019	0.395373	-0.028153	1.954140
78.310340	879.833530	0.400378	-0.028280	1.962553
78.838354	890.891251	0.405383	-0.028382	1.970914
79.264145	901.919982	0.410387	-0.028465	1.979192
80.038132	912.928586	0.415392	-0.028613	1.987509
80.805894	923.936173	0.420397	-0.028759	1.995789
81.596655	934.989571	0.425402	-0.028910	2.004073
82.261631	946.030958	0.430406	-0.029038	2.012283
83.012546	957.068154	0.435411	-0.029182	2.020477
83.688217	968.072531	0.440416	-0.029311	2.028596
84.566851	979.103828	0.445421	-0.029479	2.036752
85.215817	990.142412	0.450425	-0.029603	2.044823
86.157518	1001.166214	0.455430	-0.029783	2.052923
86.784149	1012.206627	0.460435	-0.029903	2.060927
87.534812	1023.247921	0.465439	-0.030047	2.068930
88.061170	1034.309418	0.470444	-0.030148	2.076861
88.808393	1045.307719	0.475449	-0.030291	2.084772
89.492333	1056.359870	0.480454	-0.030422	2.092674
89.955784	1067.406482	0.485458	-0.030512	2.100490
90.405769	1078.413089	0.490463	-0.030599	2.108246
91.132232	1089.432331	0.495468	-0.030738	2.116048
91.860322	1100.439786	0.500472	-0.030877	2.123812
92.584887	1111.497824	0.505477	-0.031016	2.131582
93.383153	1122.498351	0.510482	-0.031168	2.139301
93.952868	1133.564849	0.515487	-0.031278	2.146984
94.506874	1144.606300	0.520491	-0.031385	2.154619
95.097491	1155.613694	0.525496	-0.031498	2.162213
95.531778	1166.656275	0.530501	-0.031583	2.169767
96.790860	1177.586881	0.535506	-0.031822	2.177407
97.405224	1188.713238	0.540510	-0.031940	2.185005
97.781473	1199.746044	0.545515	-0.032013	2.192461
98.245754	1210.763939	0.550520	-0.032103	2.199901
98.796440	1221.790166	0.555524	-0.032209	2.207341
99.441132	1232.806394	0.560529	-0.032332	2.214769
100.202439	1243.810159	0.565534	-0.032478	2.222190
100.959735	1254.829102	0.570539	-0.032623	2.229596
101.782018	1265.862519	0.575543	-0.032780	2.237000
102.409333	1276.916123	0.580548	-0.032900	2.244350
103.141253	1287.927292	0.585553	-0.033040	2.251671
103.788018	1298.968833	0.590558	-0.033165	2.258969
104.416739	1309.991756	0.595562	-0.033285	2.266227
104.822835	1321.032005	0.600567	-0.033364	2.273426
105.279235	1332.053888	0.605572	-0.033453	2.280600
105.924757	1343.071378	0.610576	-0.033576	2.287790
106.405450	1354.113364	0.615581	-0.033669	2.294937
106.892389	1365.111802	0.620586	-0.033763	2.302035
107.472359	1376.148812	0.625591	-0.033875	2.309156
107.892981	1387.194662	0.630595	-0.033957	2.316226
108.505589	1398.183663	0.635600	-0.034074	2.323280
109.235463	1409.208705	0.640605	-0.034214	2.330358
109.926643	1420.240595	0.645610	-0.034346	2.337411
110.362745	1431.287514	0.650614	-0.034431	2.344400
110.619842	1442.324390	0.655619	-0.034482	2.351324
110.966266	1453.331945	0.660624	-0.034550	2.358229
111.528012	1464.340074	0.665628	-0.034658	2.365157
112.162085	1475.365347	0.670633	-0.034779	2.372090
112.894880	1486.373787	0.675638	-0.034920	2.379012
113.337897	1497.419959	0.680643	-0.035006	2.385879
113.706901	1508.466033	0.685647	-0.035078	2.392710
114.290509	1519.465205	0.690652	-0.035190	2.399537
114.919407	1530.472208	0.695657	-0.035311	2.406358
115.681446	1541.501968	0.700661	-0.035456	2.413199
115.977575	1552.571286	0.705666	-0.035515	2.419953
116.263283	1563.587539	0.710671	-0.035571	2.426653
116.829946	1574.583467	0.715676	-0.035680	2.433378
117.379085	1585.579658	0.720680	-0.035786	2.440082
118.155728	1596.614855	0.725685	-0.035934	2.446834
118.557982	1607.680569	0.730690	-0.036012	2.453513
118.949425	1618.674409	0.735695	-0.036089	2.460128
119.270270	1629.719341	0.740699	-0.036151	2.466743
119.811550	1640.732091	0.745704	-0.036256	2.473363
120.508313	1651.720294	0.750709	-0.036389	2.479980
121.078633	1662.770964	0.755713	-0.036499	2.486592
121.333893	1673.841349	0.760718	-0.036550	2.493139
121.696084	1684.809298	0.765723	-0.036620	2.499628
121.964446	1695.850367	0.770728	-0.036673	2.506125
122.773050	1706.847653	0.775732	-0.036828	2.512682
123.290335	1717.859365	0.780737	-0.036928	2.519175
123.919353	1728.883778	0.785742	-0.037048	2.525679
124.431302	1739.950469	0.790747	-0.037147	2.532169
124.744817	1750.965281	0.795751	-0.037209	2.538576
125.374836	1761.940495	0.800756	-0.037330	2.545002
126.045731	1772.967958	0.805761	-0.037458	2.551449
126.759183	1784.005910	0.810765	-0.037595	2.557894
127.250199	1795.037444	0.815770	-0.037690	2.564277
127.428435	1806.102426	0.820775	-0.037726	2.570607
127.818019	1817.146038	0.825780	-0.037802	2.576947
128.361415	1828.091298	0.830784	-0.037906	2.583244
129.086682	1839.090906	0.835789	-0.038045	2.589589
129.608358	1850.154601	0.840794	-0.038146	2.595918
129.812369	1861.191171	0.845799	-0.038187	2.602158
130.123942	1872.190300	0.850803	-0.038248	2.608382
130.846827	1883.172139	0.855808	-0.038386	2.614655
131.621065	1894.197144	0.860813	-0.038534	2.620946
132.275939	1905.220391	0.865817	-0.038660	2.627200
132.708941	1916.291689	0.870822	-0.038744	2.633425
132.981289	1927.296233	0.875827	-0.038798	2.639571
133.420094	1938.323881	0.880832	-0.038883	2.645744
133.910973	1949.320800	0.885836	-0.038978	2.651895
134.635372	1960.347011	0.890841	-0.039116	2.658089
135.048826	1971.367592	0.895846	-0.039197	2.664210
135.442260	1982.409001	0.900850	-0.039273	2.670326
135.543725	1993.455449	0.905855	-0.039295	2.676379
136.046971	2004.438333	0.910860	-0.039392	2.682454
136.477693	2015.444990	0.915865	-0.039476	2.688515
137.093171	2026.445765	0.920869	-0.039594	2.694590
137.459836	2037.501043	0.925874	-0.039666	2.700639
138.033622	2048.516289	0.930879	-0.039776	2.706688
138.383825	2059.516600	0.935884	-0.039844	2.712677
138.956457	2070.519328	0.940888	-0.039955	2.718692
139.382034	2081.563112	0.945893	-0.040037	2.724691
139.638724	2092.603704	0.950898	-0.040088	2.730646
140.028984	2103.588204	0.955902	-0.040164	2.736581
140.275453	2114.640961	0.960907	-0.040213	2.742515
140.895533	2125.612680	0.965912	-0.040332	2.748455
141.502940	2136.632317	0.970917	-0.040449	2.754406
142.032358	2147.670258	0.975921	-0.040551	2.760340
142.524855	2158.701581	0.980926	-0.040646	2.766252
142.654262	2169.751939	0.985931	-0.040673	2.772101
143.011246	2180.735833	0.990936	-0.040743	2.777940
143.683201	2191.729057	0.995940	-0.040871	2.783824
144.150717	2202.758726	1.000945	-0.040962	2.789680
144.628484	2213.811358	1.005950	-0.041054	2.795538
144.868763	2224.847174	1.010954	-0.041102	2.801336
145.328960	2235.818682	1.015959	-0.041191	2.807125
145.813148	2246.852264	1.020964	-0.041285	2.812937
146.201762	2257.862347	1.025969	-0.041360	2.818709
146.810655	2268.868949	1.030973	-0.041477	2.824504
147.213043	2279.922226	1.035978	-0.041556	2.830277
147.576115	2290.932498	1.040983	-0.041626	2.836010
147.972182	2301.958341	1.045988	-0.041704	2.841744
148.392298	2312.964211	1.050992	-0.041785	2.847461
149.037333	2323.956946	1.055997	-0.041909	2.853194
149.499511	2334.992803	1.061002	-0.041998	2.858909
150.074599	2346.006771	1.066006	-0.042109	2.864619
150.572988	2357.064520	1.071011	-0.042205	2.870328
150.767264	2368.080828	1.076016	-0.042244	2.875957
151.420157	2379.058996	1.081021	-0.042370	2.881627
151.841170	2390.104073	1.086025	-0.042451	2.887284
151.993291	2401.170128	1.091030	-0.042483	2.892898
152.243449	2412.136153	1.096035	-0.042532	2.898466
152.529831	2423.154717	1.101039	-0.042589	2.904055
153.150658	2434.160553	1.106044	-0.042708	2.909679
153.582187	2445.195657	1.111049	-0.042792	2.915277
154.069532	2456.211111	1.116054	-0.042886	2.920863
154.603348	2467.235326	1.121058	-0.042989	2.926449
154.892058	2478.262363	1.126063	-0.043046	2.931989
155.415865	2489.247319	1.131068	-0.043147	2.937533
155.848104	2500.275768	1.136073	-0.043230	2.943074
156.191192	2511.309668	1.141077	-0.043298	2.948594
156.595246	2522.321530	1.146082	-0.043376	2.954102
156.872995	2533.380623	1.151087	-0.043431	2.959604
157.259984	2544.341974	1.156091	-0.043506	2.965064
157.710988	2555.394197	1.161096	-0.043594	2.970568
158.111767	2566.385859	1.166101	-0.043672	2.976024
158.645510	2577.426272	1.171106	-0.043774	2.981514
159.126030	2588.412331	1.176110	-0.043867	2.986959
159.525072	2599.459508	1.181115	-0.043945	2.992412
159.840768	2610.466444	1.186120	-0.044007	2.997823
160.178813	2621.499112	1.191125	-0.044073	3.003240
160.585992	2632.507521	1.196129	-0.044152	3.008645
161.022503	2643.529322	1.201134	-0.044237	3.014052
161.513477	2654.533129	1.206139	-0.044332	3.019447
161.999824	2665.555965	1.211143	-0.044426	3.024842
162.183278	2676.597572	1.216148	-0.044463	3.030192
162.742556	2687.594013	1.221153	-0.044571	3.035565
163.066439	2698.622281	1.226158	-0.044634	3.040910
163.561962	2709.626298	1.231162	-0.044730	3.046258
164.008908	2720.660758	1.236167	-0.044816	3.051605
164.252138	2731.676309	1.241172	-0.044865	3.056904
164.728913	2742.663415	1.246177	-0.044957	3.062213
165.166926	2753.709840	1.251181	-0.045042	3.067536
165.575409	2764.715026	1.256186	-0.045121	3.072825
166.011235	2775.744025	1.261191	-0.045206	3.078121
166.266735	2786.760166	1.266195	-0.045256	3.083376
166.617870	2797.802756	1.271200	-0.045325	3.088647
166.816476	2808.788579	1.276205	-0.045365	3.093862
167.158715	2819.815033	1.281210	-0.045432	3.099107
167.536665	2830.829415	1.286214	-0.045506	3.104342
167.863514	2841.855913	1.291219	-0.045570	3.109567
168.296120	2852.842846	1.296224	-0.045653	3.114780
169.205896	2863.857093	1.301228	-0.045827	3.120061
169.793413	2874.888096	1.306233	-0.045940	3.125298
170.129758	2885.949033	1.311238	-0.046006	3.130504
170.385939	2896.941581	1.316243	-0.046057	3.135660
170.915508	2907.933514	1.321247	-0.046159	3.140844
171.367749	2918.954697	1.326252	-0.046246	3.146022
171.735556	2930.011126	1.331257	-0.046318	3.151196
172.059412	2940.981469	1.336262	-0.046381	3.156316
172.593307	2952.024305	1.341266	-0.046484	3.161490
172.931942	2963.043833	1.346271	-0.046551	3.166618
173.254672	2974.059071	1.351276	-0.046614	3.171733
173.510674	2985.069717	1.356280	-0.046665	3.176829
174.008575	2996.083790	1.361285	-0.046761	3.181951
174.407195	3007.115654	1.366290	-0.046838	3.187059
174.860593	3018.107392	1.371295	-0.046926	3.192148
175.349699	3029.127311	1.376299	-0.047021	3.197246
175.592472	3040.194203	1.381304	-0.047069	3.202325
176.069907	3051.173956	1.386309	-0.047161	3.207387
176.312221	3062.213401	1.391314	-0.047209	3.212437
176.563592	3073.186621	1.396318	-0.047259	3.217450
177.254134	3084.220122	1.401323	-0.047392	3.222541
177.579602	3095.249250	1.406328	-0.047455	3.227573
178.068128	3106.255891	1.411332	-0.047550	3.232608
178.394690	3117.283144	1.416337	-0.047614	3.237624
178.808112	3128.288300	1.421342	-0.047694	3.242633
179.046235	3139.332039	1.426347	-0.047742	3.247630
179.511198	3150.326575	1.431351	-0.047832	3.252625
179.761062	3161.358297	1.436356	-0.047881	3.257602
180.039957	3172.356249	1.441361	-0.047936	3.262560
180.258232	3183.389947	1.446366	-0.047980	3.267518
180.693505	3194.404544	1.451370	-0.048064	3.272488
180.888614	3205.420710	1.456375	-0.048104	3.277420
181.320954	3216.412019	1.461380	-0.048187	3.282364
181.792119	3227.454299	1.466384	-0.048279	3.287328
182.054188	3238.476723	1.471389	-0.048331	3.292250
182.460202	3249.481335	1.476394	-0.048409	3.297174
182.922161	3260.486212	1.481399	-0.048499	3.302097
183.317077	3271.507888	1.486403	-0.048576	3.307013
183.876642	3282.523794	1.491408	-0.048683	3.311938
184.162154	3293.551200	1.496413	-0.048740	3.316828
184.384000	3304.577627	1.501417	-0.048784	3.321702
184.672429	3315.600945	1.506422	-0.048841	3.326575
184.960214	3326.599545	1.511427	-0.048898	3.331430
185.295576	3337.597490	1.516432	-0.048963	3.336284
185.498395	3348.641255	1.521436	-0.049004	3.341134
185.995565	3359.638483	1.526441	-0.049100	3.345994
186.366558	3370.684076	1.531446	-0.049172	3.350851
186.771369	3381.674082	1.536451	-0.049251	3.355681
187.364570	3392.692915	1.541455	-0.049365	3.360540
187.783662	3403.715855	1.546460	-0.049446	3.365372
188.274203	3414.732158	1.551465	-0.049541	3.370203
188.567659	3425.728859	1.556469	-0.049599	3.374995
188.980252	3436.771118	1.561474	-0.049679	3.379814
189.540713	3447.757838	1.566479	-0.049787	3.384620
189.895160	3458.812363	1.571484	-0.049856	3.389423
190.017693	3469.821837	1.576488	-0.049882	3.394172
190.279152	3480.853295	1.581493	-0.049934	3.398941
190.470821	3491.836119	1.586498	-0.049973	3.403673
190.894610	3502.865520	1.591503	-0.050055	3.408447
190.990182	3513.895921	1.596507	-0.050075	3.413175
191.462452	3524.868763	1.601512	-0.050167	3.417917
191.628326	3535.934805	1.606517	-0.050201	3.422655
191.970765	3546.927891	1.611521	-0.050268	3.427377
192.410768	3557.924199	1.616526	-0.050353	3.432105
192.772728	3568.959105	1.621531	-0.050424	3.436834
193.203615	3579.968448	1.626536	-0.050507	3.441553
193.837447	3590.989053	1.631540	-0.050629	3.446294
194.011458	3602.015303	1.636545	-0.050664	3.450977
194.559688	3613.011530	1.641550	-0.050770	3.455685
194.904141	3624.034785	1.646555	-0.050837	3.460374
195.390241	3635.047815	1.651559	-0.050931	3.465068
195.611837	3646.067019	1.656564	-0.050975	3.469729
195.862739	3657.099918	1.661569	-0.051025	3.474392
196.282256	3668.096554	1.666573	-0.051107	3.479052
196.820754	3679.119085	1.671578	-0.051210	3.483731
197.074660	3690.161421	1.676583	-0.051261	3.488380
197.345040	3701.150671	1.681588	-0.051314	3.493002
197.384970	3712.186789	1.686592	-0.051324	3.497611
197.898094	3723.170253	1.691597	-0.051423	3.502245
198.216315	3734.214207	1.696602	-0.051486	3.506877
198.520124	3745.205553	1.701606	-0.051546	3.511478
198.873517	3756.232028	1.706611	-0.051615	3.516094
199.118149	3767.268869	1.711616	-0.051663	3.520696
199.460314	3778.272850	1.716621	-0.051730	3.525289
199.762052	3789.297140	1.721625	-0.051790	3.529880
200.005134	3800.306499	1.726630	-0.051838	3.534452
200.457576	3811.313261	1.731635	-0.051926	3.539041
200.810288	3822.342634	1.736640	-0.051994	3.543621
201.279464	3833.336261	1.741644	-0.052085	3.548194
201.297590	3844.366914	1.746649	-0.052091	3.552726
201.650759	3855.365077	1.751654	-0.052160	3.557276
202.055220	3866.383711	1.756658	-0.052239	3.561834
202.411670	3877.417485	1.761663	-0.052309	3.566388
202.575046	3888.426404	1.766668	-0.052342	3.570904
202.694002	3899.446748	1.771673	-0.052367	3.575414
202.940870	3910.443869	1.776677	-0.052416	3.579922
203.602777	3921.467089	1.781682	-0.052543	3.584481
203.840727	3932.504264	1.786687	-0.052590	3.588994
204.167881	3943.496390	1.791692	-0.052654	3.593492
204.147453	3954.566571	1.796696	-0.052653	3.597979
204.641895	3965.502897	1.801701	-0.052749	3.602461
205.026724	3976.564266	1.806706	-0.052824	3.606976
205.352604	3987.575828	1.811710	-0.052888	3.611459
205.760361	3998.559544	1.816715	-0.052967	3.615934
206.285421	4009.580456	1.821720	-0.053068	3.620431
206.387414	4020.630370	1.826725	-0.053090	3.624889
206.683566	4031.633377	1.831729	-0.053148	3.629343
206.875303	4042.662929	1.836734	-0.053187	3.633792
207.460659	4053.656974	1.841739	-0.053300	3.638262
207.687079	4064.684670	1.846744	-0.053345	3.642702
208.097798	4075.689275	1.851748	-0.053425	3.647147
208.337473	4086.700211	1.856753	-0.053472	3.651571
208.712458	4097.754193	1.861758	-0.053545	3.656020
209.094827	4108.788688	1.866762	-0.053620	3.660458
209.587793	4119.799323	1.871767	-0.053715	3.664891
209.741643	4130.815772	1.876772	-0.053747	3.669287
210.180915	4141.834726	1.881777	-0.053832	3.673708
210.420539	4152.864307	1.886781	-0.053880	3.678107
210.922618	4163.864123	1.891786	-0.053976	3.682516
211.270385	4174.898011	1.896791	-0.054044	3.686917
211.459919	4185.882989	1.901795	-0.054083	3.691277
211.668404	4196.928438	1.906800	-0.054125	3.695658
211.870498	4207.910387	1.911805	-0.054165	3.700007
212.306536	4218.916978	1.916810	-0.054250	3.704386
212.805972	4229.949945	1.921814	-0.054346	3.708776
213.057686	4240.978601	1.926819	-0.054396	3.713133
213.543593	4252.000520	1.931824	-0.054490	3.717507
213.656380	4263.026939	1.936829	-0.054514	3.721839
214.045513	4274.018194	1.941833	-0.054590	3.726181
214.504703	4285.013352	1.946838	-0.054679	3.730526
214.893074	4296.050351	1.951843	-0.054754	3.734875
215.097016	4307.070267	1.956847	-0.054795	3.739193
215.313711	4318.079782	1.961852	-0.054839	3.743504
215.532896	4329.113579	1.966857	-0.054882	3.747820
