Wed Nov 23 17:50:12 2022

Number of Points = 2200
Depth (nm)	Load (µN)	Time (s)	Depth (V)	Load (V)
-2.969656	0.181230	0.000000	0.017094	1.008447
0.000000	6.965107	0.005005	0.016535	1.019889
3.328899	16.143402	0.010009	0.015908	1.034803
7.349304	26.658470	0.015014	0.015151	1.051733
13.021478	37.281951	0.020019	0.014084	1.069380
19.557776	48.254614	0.025024	0.012855	1.087639
24.152937	59.803157	0.030028	0.011990	1.105406
26.941114	71.442972	0.035033	0.011464	1.122135
28.683867	82.872128	0.040038	0.011134	1.137847
30.511758	94.058235	0.045043	0.010788	1.153073
32.153896	105.235055	0.050047	0.010478	1.168003
33.657081	116.406117	0.055052	0.010193	1.182671
34.935965	127.549563	0.060057	0.009950	1.197025
36.267154	138.659635	0.065061	0.009697	1.211189
37.754802	149.759466	0.070066	0.009416	1.225246
39.170423	160.870011	0.075071	0.009147	1.239124
40.635596	171.940105	0.080076	0.008870	1.252820
41.858046	183.120874	0.085080	0.008637	1.266393
42.846645	194.221753	0.090085	0.008449	1.279632
44.172448	205.288522	0.095090	0.008198	1.292835
45.336755	216.444735	0.100094	0.007976	1.305938
46.753220	227.445359	0.105099	0.007708	1.318840
47.944989	238.555293	0.110104	0.007482	1.331645
48.908332	249.680562	0.115109	0.007298	1.344254
49.880771	260.771139	0.120113	0.007113	1.356712
50.786818	271.870839	0.125118	0.006940	1.369039
52.242431	282.819611	0.130123	0.006664	1.381307
53.456633	293.941472	0.135128	0.006434	1.393556
54.441867	305.060914	0.140132	0.006246	1.405609
55.889006	316.065893	0.145137	0.005972	1.417614
56.777673	327.190614	0.150142	0.005802	1.429432
58.167725	338.215458	0.155146	0.005539	1.441235
59.533033	349.258580	0.160151	0.005280	1.452952
60.359612	360.432695	0.165156	0.005122	1.464510
61.453126	371.454680	0.170161	0.004914	1.475921
62.738262	382.483050	0.175165	0.004670	1.487319
63.578700	393.615321	0.180170	0.004510	1.498575
64.794938	404.612975	0.185175	0.004279	1.509746
65.949553	415.668638	0.190180	0.004059	1.520869
67.269448	426.736058	0.195184	0.003809	1.531980
67.839598	437.900648	0.200189	0.003699	1.542846
69.021104	448.861101	0.205194	0.003475	1.553649
69.787240	459.958261	0.210198	0.003328	1.564366
71.009537	470.995691	0.215203	0.003096	1.575107
71.712935	482.080927	0.220208	0.002961	1.585646
72.903158	493.079399	0.225213	0.002735	1.596196
73.625652	504.195359	0.230217	0.002597	1.606630
74.803393	515.198848	0.235222	0.002373	1.617042
75.279946	526.346539	0.240227	0.002281	1.627292
76.271496	537.292624	0.245232	0.002092	1.637460
77.221433	548.357036	0.250236	0.001911	1.647658
78.317978	559.390328	0.255241	0.001703	1.657811
79.000129	570.499930	0.260246	0.001572	1.667840
80.105066	581.480470	0.265250	0.001362	1.677826
80.861102	592.582178	0.270255	0.001217	1.687750
81.750394	603.622290	0.275260	0.001048	1.697604
82.375880	614.680654	0.280265	0.000928	1.707336
83.180888	625.716124	0.285269	0.000774	1.717047
83.868307	636.769172	0.290274	0.000642	1.726682
84.523681	647.815399	0.295279	0.000517	1.736249
85.478261	658.811185	0.300283	0.000335	1.745809
86.143408	669.919889	0.305288	0.000207	1.755326
86.638619	680.955787	0.310293	0.000112	1.764680
87.724499	691.947269	0.315298	-0.000095	1.774121
88.220007	703.021640	0.320302	-0.000191	1.783408
89.166832	714.036333	0.325307	-0.000371	1.792728
89.834622	725.094495	0.330312	-0.000499	1.801954
90.652219	736.130187	0.335317	-0.000655	1.811158
91.392628	747.175042	0.340321	-0.000797	1.820301
92.252006	758.191650	0.345326	-0.000961	1.829408
92.744695	769.296187	0.350331	-0.001056	1.838437
93.632937	780.257594	0.355335	-0.001225	1.847418
94.346258	791.336530	0.360340	-0.001362	1.856400
95.045683	802.377713	0.365345	-0.001496	1.865305
95.657451	813.422780	0.370350	-0.001614	1.874147
96.352600	824.427335	0.375354	-0.001747	1.882937
97.082610	835.491898	0.380359	-0.001886	1.891743
97.902626	846.509489	0.385364	-0.002043	1.900495
98.407551	857.559932	0.390369	-0.002141	1.909148
98.945907	868.625589	0.395373	-0.002244	1.917782
99.593577	879.611423	0.400378	-0.002369	1.926345
100.552481	890.653253	0.405383	-0.002551	1.934994
101.114249	901.678539	0.410387	-0.002659	1.943488
101.903953	912.712809	0.415392	-0.002810	1.952011
102.657873	923.748733	0.420397	-0.002954	1.960489
103.392810	934.770894	0.425402	-0.003095	1.968914
104.251441	945.804186	0.430406	-0.003259	1.977344
104.771316	956.897442	0.435411	-0.003359	1.985695
105.356351	967.886286	0.440416	-0.003472	1.993950
105.939668	978.945912	0.445421	-0.003584	2.002223
106.311140	990.000752	0.450425	-0.003656	2.010404
107.147189	1000.982264	0.455430	-0.003816	2.018616
107.830913	1011.997859	0.460435	-0.003947	2.026780
108.316742	1023.090832	0.465439	-0.004041	2.034918
108.938403	1034.082900	0.470444	-0.004160	2.042985
109.744438	1045.106656	0.475449	-0.004314	2.051087
110.224727	1056.198441	0.480454	-0.004407	2.059126
110.835566	1067.179297	0.485458	-0.004524	2.067087
111.491558	1078.231511	0.490463	-0.004650	2.075078
112.018367	1089.274034	0.495468	-0.004752	2.083000
112.569719	1100.288097	0.500472	-0.004858	2.090878
113.166057	1111.335238	0.505477	-0.004973	2.098761
113.469174	1122.379306	0.510482	-0.005032	2.106541
113.949579	1133.375673	0.515487	-0.005125	2.114302
114.664394	1144.378558	0.520491	-0.005262	2.122094
115.316834	1155.428792	0.525496	-0.005387	2.129875
116.019235	1166.456178	0.530501	-0.005522	2.137623
116.605833	1177.479734	0.535506	-0.005634	2.145314
117.119658	1188.528295	0.540510	-0.005734	2.152977
117.498884	1199.583006	0.545515	-0.005807	2.160586
117.988932	1210.569087	0.550520	-0.005902	2.168147
118.943057	1221.579856	0.555524	-0.006084	2.175804
119.415796	1232.636272	0.560529	-0.006175	2.183355
120.146867	1243.643234	0.565534	-0.006315	2.190905
120.573836	1254.692862	0.570539	-0.006398	2.198389
121.256567	1265.720550	0.575543	-0.006529	2.205890
121.552330	1276.778571	0.580548	-0.006587	2.213300
122.127764	1287.778925	0.585553	-0.006698	2.220708
122.628914	1298.773956	0.590558	-0.006795	2.228072
123.324102	1309.817659	0.595562	-0.006928	2.235486
123.651641	1320.880368	0.600567	-0.006992	2.242807
124.437223	1331.859044	0.605572	-0.007142	2.250149
124.889995	1342.938120	0.610576	-0.007230	2.257460
125.456422	1353.930316	0.615581	-0.007339	2.264716
125.799906	1364.958576	0.620586	-0.007406	2.271923
126.351693	1375.990439	0.625591	-0.007512	2.279154
126.652972	1387.018069	0.630595	-0.007572	2.286306
127.237558	1398.039695	0.635600	-0.007684	2.293493
127.761728	1409.055307	0.640605	-0.007785	2.300640
128.392802	1420.075358	0.645610	-0.007906	2.307790
128.543121	1431.162230	0.650614	-0.007937	2.314858
129.155446	1442.119555	0.655619	-0.008055	2.321921
129.524098	1453.176054	0.660624	-0.008127	2.328973
130.129641	1464.183342	0.665628	-0.008243	2.336022
130.775117	1475.191423	0.670633	-0.008367	2.343058
131.352160	1486.223040	0.675638	-0.008478	2.350074
131.731931	1497.305180	0.680643	-0.008552	2.357060
132.165344	1508.296657	0.685647	-0.008636	2.363979
132.564498	1519.308126	0.690652	-0.008714	2.370884
133.242063	1530.309764	0.695657	-0.008843	2.377818
133.541897	1541.390752	0.700661	-0.008902	2.384705
133.976881	1552.388703	0.705666	-0.008987	2.391548
134.477829	1563.411409	0.710671	-0.009083	2.398400
135.039085	1574.420465	0.715676	-0.009192	2.405236
135.353012	1585.482680	0.720680	-0.009253	2.412035
135.860131	1596.470934	0.725685	-0.009351	2.418809
136.331625	1607.500133	0.730690	-0.009442	2.425581
136.731050	1618.537908	0.735695	-0.009520	2.432325
137.024865	1629.555599	0.740699	-0.009578	2.439018
137.704688	1640.558105	0.745704	-0.009708	2.445759
138.088105	1651.612950	0.750709	-0.009783	2.452454
138.370732	1662.639646	0.755713	-0.009839	2.459094
138.833423	1673.634650	0.760718	-0.009928	2.465733
139.159070	1684.685459	0.765723	-0.009992	2.472360
139.584882	1695.696038	0.770728	-0.010075	2.478965
140.190019	1706.705479	0.775732	-0.010191	2.485586
140.571764	1717.739577	0.780737	-0.010265	2.492161
141.127203	1728.759426	0.785742	-0.010372	2.498743
141.403113	1739.790577	0.790747	-0.010427	2.505262
141.964393	1750.784749	0.795751	-0.010535	2.511795
142.690234	1761.802733	0.800756	-0.010674	2.518357
143.302025	1772.834756	0.805761	-0.010791	2.524888
143.612395	1783.890822	0.810765	-0.010852	2.531359
143.823607	1794.922589	0.815770	-0.010894	2.537781
144.152713	1805.905798	0.820775	-0.010959	2.544181
144.868126	1816.903510	0.825780	-0.011096	2.550645
145.333854	1827.970897	0.830784	-0.011186	2.557085
145.760802	1838.994743	0.835789	-0.011269	2.563478
145.941252	1850.008412	0.840794	-0.011305	2.569803
146.353026	1861.099594	0.845799	-0.011385	2.576199
146.453422	1872.085002	0.850803	-0.011407	2.582463
146.936480	1883.044107	0.855808	-0.011500	2.588766
147.383167	1894.097231	0.860813	-0.011587	2.595100
147.785968	1905.113112	0.865817	-0.011665	2.601389
147.999706	1916.146782	0.870822	-0.011708	2.607639
148.546951	1927.140886	0.875827	-0.011813	2.613912
148.882033	1938.173327	0.880832	-0.011879	2.620153
149.533467	1949.173175	0.885836	-0.012004	2.626417
149.823679	1960.243938	0.890841	-0.012061	2.632642
150.251432	1971.224690	0.895846	-0.012144	2.638826
150.653535	1982.257122	0.900850	-0.012222	2.645019
151.066029	1993.285834	0.905855	-0.012303	2.651198
151.634696	2004.299100	0.910860	-0.012412	2.657381
152.073006	2015.317222	0.915865	-0.012497	2.663530
152.222755	2026.358586	0.920869	-0.012528	2.669626
152.615480	2037.351776	0.925874	-0.012604	2.675725
153.148257	2048.360468	0.930879	-0.012707	2.681842
153.735556	2059.370299	0.935884	-0.012820	2.687955
154.017728	2070.406635	0.940888	-0.012875	2.694016
154.514305	2081.410238	0.945893	-0.012971	2.700083
154.694927	2092.460007	0.950898	-0.013008	2.706106
155.249919	2103.449500	0.955902	-0.013115	2.712148
155.830086	2114.470176	0.960907	-0.013226	2.718197
156.235950	2125.509519	0.965912	-0.013305	2.724212
156.552952	2136.536029	0.970917	-0.013368	2.730193
156.878260	2147.543725	0.975921	-0.013431	2.736152
157.179251	2158.563027	0.980926	-0.013491	2.742099
157.592992	2169.577715	0.985931	-0.013571	2.748050
157.788293	2180.630122	0.990936	-0.013610	2.753972
158.084891	2191.609610	0.995940	-0.013669	2.759859
158.367545	2202.670295	1.000945	-0.013724	2.765775
158.791436	2213.656569	1.005950	-0.013807	2.771661
159.257729	2224.672422	1.010954	-0.013897	2.777558
159.622336	2235.695969	1.015959	-0.013968	2.783429
159.882164	2246.737288	1.020964	-0.014020	2.789280
160.340763	2257.732483	1.025969	-0.014108	2.795127
160.578231	2268.780690	1.030973	-0.014156	2.800953
160.985322	2279.756430	1.035978	-0.014235	2.806757
161.645448	2290.799029	1.040983	-0.014361	2.812624
161.992355	2301.814392	1.045988	-0.014429	2.818415
162.316234	2312.840723	1.050992	-0.014493	2.824195
162.539403	2323.879034	1.055997	-0.014537	2.829954
162.883933	2334.878998	1.061002	-0.014605	2.835700
163.445127	2345.891009	1.066006	-0.014713	2.841475
163.719953	2356.919325	1.071011	-0.014767	2.847202
163.961911	2367.953581	1.076016	-0.014815	2.852914
164.245089	2378.967094	1.081021	-0.014871	2.858611
164.586257	2389.958213	1.086025	-0.014938	2.864295
164.995024	2401.003962	1.091030	-0.015017	2.870005
165.505401	2411.990731	1.096035	-0.015116	2.875690
166.052797	2423.027765	1.101039	-0.015221	2.881395
166.261964	2434.077330	1.106044	-0.015263	2.887042
166.556284	2445.089399	1.111049	-0.015321	2.892672
166.909044	2456.072649	1.116054	-0.015390	2.898286
167.168640	2467.117255	1.121058	-0.015441	2.903905
167.670504	2478.123133	1.126063	-0.015538	2.909531
167.934432	2489.150295	1.131068	-0.015590	2.915121
168.425452	2500.153280	1.136073	-0.015685	2.920722
168.666158	2511.200658	1.141077	-0.015733	2.926296
169.052110	2522.193289	1.146082	-0.015808	2.931855
169.489356	2533.200382	1.151087	-0.015893	2.937417
169.874531	2544.240918	1.156091	-0.015968	2.942978
170.119193	2555.270079	1.161096	-0.016017	2.948502
170.251715	2566.274306	1.166101	-0.016044	2.953986
170.682563	2577.298229	1.171106	-0.016128	2.959514
171.151374	2588.302072	1.176110	-0.016219	2.965027
171.520446	2599.335596	1.181115	-0.016291	2.970530
171.877959	2610.361794	1.186120	-0.016360	2.976017
172.257081	2621.374274	1.191125	-0.016434	2.981491
172.583718	2632.374255	1.196129	-0.016498	2.986940
173.023361	2643.407173	1.201134	-0.016584	2.992412
173.377713	2654.410461	1.206139	-0.016653	2.997847
173.729452	2665.453463	1.211143	-0.016721	3.003292
173.857693	2676.481515	1.216148	-0.016748	3.008686
173.956973	2687.494533	1.221153	-0.016770	3.014059
174.325745	2698.474763	1.226158	-0.016842	3.019445
174.770602	2709.516015	1.231162	-0.016928	3.024863
175.052706	2720.544945	1.236167	-0.016983	3.030241
175.394510	2731.546814	1.241172	-0.017050	3.035606
175.751488	2742.584725	1.246177	-0.017120	3.040980
176.082295	2753.576373	1.251181	-0.017185	3.046318
176.313542	2764.620624	1.256186	-0.017231	3.051659
176.795227	2775.590288	1.261191	-0.017324	3.056989
177.247813	2786.640500	1.266195	-0.017412	3.062345
177.395598	2797.678339	1.271200	-0.017442	3.067642
177.543509	2808.683652	1.276205	-0.017473	3.072915
177.778183	2819.692106	1.281210	-0.017519	3.078192
178.176601	2830.709244	1.286214	-0.017597	3.083487
178.484578	2841.758737	1.291219	-0.017657	3.088776
178.847466	2852.736080	1.296224	-0.017728	3.094029
178.877707	2863.795867	1.301228	-0.017737	3.099265
179.349120	2874.768496	1.306233	-0.017828	3.104514
179.571050	2885.829221	1.311238	-0.017872	3.109759
179.786131	2896.810645	1.316243	-0.017915	3.114958
180.173743	2907.836940	1.321247	-0.017991	3.120193
180.529146	2918.861678	1.326252	-0.018060	3.125414
181.040094	2929.868826	1.331257	-0.018159	3.130639
181.162405	2940.893487	1.336262	-0.018184	3.135811
181.519971	2951.899552	1.341266	-0.018254	3.140997
181.880497	2962.922651	1.346271	-0.018325	3.146183
182.072343	2973.938519	1.351276	-0.018363	3.151334
182.195435	2984.992068	1.356280	-0.018389	3.156485
182.665969	2995.946034	1.361285	-0.018480	3.161628
183.136298	3006.981836	1.366290	-0.018571	3.166800
183.496669	3018.018919	1.371295	-0.018641	3.171950
183.952359	3029.007253	1.376299	-0.018730	3.177082
184.360083	3040.045437	1.381304	-0.018809	3.182221
184.713784	3051.064628	1.386309	-0.018878	3.187337
184.933956	3062.088996	1.391314	-0.018922	3.192428
185.345335	3073.080434	1.396318	-0.019002	3.197522
185.645941	3084.130843	1.401323	-0.019061	3.202620
186.022610	3095.150460	1.406328	-0.019135	3.207706
186.011198	3106.174337	1.411332	-0.019135	3.212734
186.275373	3117.152896	1.416337	-0.019187	3.217770
186.568409	3128.186611	1.421342	-0.019245	3.222827
186.931942	3139.201780	1.426347	-0.019316	3.227877
187.197974	3150.215839	1.431351	-0.019369	3.232906
187.435567	3161.242403	1.436356	-0.019416	3.237929
187.548885	3172.256442	1.441361	-0.019440	3.242922
188.002501	3183.259625	1.446366	-0.019528	3.247946
188.373135	3194.291673	1.451370	-0.019600	3.252965
188.814444	3205.283349	1.456375	-0.019686	3.257967
188.931025	3216.336101	1.461380	-0.019710	3.262947
189.289862	3227.334370	1.466384	-0.019780	3.267926
189.579958	3238.354797	1.471389	-0.019837	3.272898
190.056709	3249.345901	1.476394	-0.019930	3.277874
190.491365	3260.389303	1.481399	-0.020014	3.282860
190.651392	3271.423866	1.486403	-0.020047	3.287799
190.945628	3282.406044	1.491408	-0.020105	3.292725
191.117698	3293.455217	1.496413	-0.020140	3.297657
191.220048	3304.466315	1.501417	-0.020162	3.302557
191.682756	3315.470420	1.506422	-0.020251	3.307491
191.822288	3326.491381	1.511427	-0.020280	3.312385
192.186218	3337.501906	1.516432	-0.020351	3.317295
192.504123	3348.528692	1.521436	-0.020413	3.322199
192.846394	3359.541074	1.526441	-0.020480	3.327092
193.312572	3370.550597	1.531446	-0.020571	3.331992
193.570934	3381.579301	1.536451	-0.020622	3.336868
193.838602	3392.599680	1.541455	-0.020675	3.341734
193.923263	3403.614499	1.546460	-0.020693	3.346568
194.186446	3414.620052	1.551465	-0.020745	3.351412
194.475715	3425.651623	1.556469	-0.020802	3.356265
194.943707	3436.641322	1.561474	-0.020893	3.361113
195.392998	3447.656907	1.566479	-0.020980	3.365964
195.507578	3458.718759	1.571484	-0.021004	3.370787
195.799166	3469.692265	1.576488	-0.021062	3.375586
195.887304	3480.736470	1.581493	-0.021081	3.380384
196.282620	3491.735802	1.586498	-0.021158	3.385193
196.654931	3502.767708	1.591503	-0.021230	3.390007
196.847508	3513.771728	1.596507	-0.021269	3.394780
197.086500	3524.807473	1.601512	-0.021317	3.399565
197.394401	3535.791173	1.606517	-0.021377	3.404330
197.930876	3546.819993	1.611521	-0.021481	3.409134
198.317250	3557.803982	1.616526	-0.021556	3.413895
198.500007	3568.871153	1.621531	-0.021593	3.418660
198.707911	3579.863753	1.626536	-0.021635	3.423389
198.857570	3590.914213	1.631540	-0.021666	3.428130
199.326700	3601.873366	1.636545	-0.021756	3.432863
199.688538	3612.921746	1.641550	-0.021827	3.437615
200.259275	3623.913363	1.646555	-0.021937	3.442360
200.438490	3634.975834	1.651559	-0.021973	3.447083
200.696905	3645.959680	1.656564	-0.022024	3.451775
200.990067	3657.001478	1.661569	-0.022082	3.456490
201.245296	3667.986407	1.666573	-0.022133	3.461170
201.441157	3679.043411	1.671578	-0.022172	3.465866
201.920484	3689.987439	1.676583	-0.022265	3.470542
202.218675	3701.060838	1.681588	-0.022324	3.475244
202.622793	3712.063353	1.686592	-0.022402	3.479923
202.844032	3723.096937	1.691597	-0.022446	3.484587
203.092016	3734.095044	1.696602	-0.022496	3.489234
203.273961	3745.117888	1.701606	-0.022532	3.493876
203.586144	3756.117787	1.706611	-0.022594	3.498518
203.918130	3767.161553	1.711616	-0.022659	3.503174
204.240047	3778.162474	1.716621	-0.022722	3.507805
204.514327	3789.161231	1.721625	-0.022776	3.512423
204.785943	3800.199446	1.726630	-0.022830	3.517052
205.085644	3811.211034	1.731635	-0.022889	3.521666
205.550355	3822.228691	1.736640	-0.022979	3.526295
205.521224	3833.274567	1.741644	-0.022976	3.530875
205.833656	3844.252875	1.746649	-0.023037	3.535459
205.904463	3855.285375	1.751654	-0.023053	3.540032
206.141736	3866.293299	1.756658	-0.023101	3.544607
206.482178	3877.312811	1.761663	-0.023167	3.549193
206.776349	3888.309339	1.766668	-0.023225	3.553758
207.037206	3899.363397	1.771673	-0.023277	3.558338
207.271187	3910.354819	1.776677	-0.023323	3.562883
207.429234	3921.382413	1.781682	-0.023356	3.567428
207.691662	3932.369540	1.786687	-0.023408	3.571962
208.078169	3943.419985	1.791692	-0.023483	3.576530
208.458941	3954.374176	1.796696	-0.023557	3.581053
208.699753	3965.458772	1.801701	-0.023605	3.585607
208.942168	3976.431676	1.806706	-0.023653	3.590110
209.163355	3987.474847	1.811710	-0.023698	3.594634
209.427858	3998.465310	1.816715	-0.023750	3.599135
209.667337	4009.536391	1.821720	-0.023798	3.603661
209.993354	4020.503150	1.826725	-0.023861	3.608148
210.202016	4031.542021	1.831729	-0.023903	3.612646
210.438101	4042.535095	1.836734	-0.023950	3.617122
210.743976	4053.547435	1.841739	-0.024011	3.621609
211.238104	4064.553987	1.846744	-0.024106	3.626107
211.461104	4075.612347	1.851748	-0.024151	3.630592
211.620556	4086.599814	1.856753	-0.024183	3.635036
211.775056	4097.665837	1.861758	-0.024215	3.639505
212.149731	4108.678959	1.866762	-0.024288	3.643971
212.572086	4119.701922	1.871767	-0.024370	3.648441
212.712489	4130.723409	1.876772	-0.024399	3.652874
212.883631	4141.766711	1.881777	-0.024434	3.657314
213.165505	4152.724198	1.886781	-0.024489	3.661726
213.490620	4163.773737	1.891786	-0.024553	3.666174
213.708687	4174.778139	1.896791	-0.024597	3.670588
213.859510	4185.832402	1.901795	-0.024628	3.675008
214.130224	4196.794971	1.906800	-0.024681	3.679400
214.379717	4207.851861	1.911805	-0.024731	3.683821
214.561103	4218.845624	1.916810	-0.024768	3.688205
214.776059	4229.852539	1.921814	-0.024811	3.692592
215.237074	4240.863852	1.926819	-0.024900	3.697002
215.612935	4251.884817	1.931824	-0.024973	3.701401
215.757345	4262.913764	1.936829	-0.025003	3.705773
215.805942	4273.932461	1.941833	-0.025015	3.710127
216.160195	4284.937179	1.946838	-0.025084	3.714502
216.383801	4295.969192	1.951843	-0.025129	3.718869
216.847883	4306.932285	1.956847	-0.025219	3.723228
217.157807	4317.988240	1.961852	-0.025279	3.727602
217.337865	4329.003409	1.966857	-0.025316	3.731942
217.629187	4340.021196	1.971862	-0.025373	3.736290
