Wed Nov 23 18:09:14 2022

Number of Points = 2200
Depth (nm)	Load (µN)	Time (s)	Depth (V)	Load (V)
-1.053721	1.593449	0.000000	0.036942	0.951615
0.000000	7.643575	0.005005	0.036743	0.961554
0.715171	16.718940	0.010009	0.036606	0.975786
1.680023	27.259128	0.015014	0.036423	0.992133
2.368627	38.313205	0.020019	0.036291	1.008816
3.286675	49.393128	0.025024	0.036116	1.025386
3.962173	60.586988	0.030028	0.035986	1.041727
4.567916	71.784786	0.035033	0.035870	1.057784
5.034097	82.949268	0.040038	0.035780	1.073484
5.692017	94.077562	0.045043	0.035653	1.089003
6.290808	105.214152	0.050047	0.035538	1.104287
6.847116	116.363916	0.055052	0.035431	1.119358
9.363324	126.790166	0.060057	0.034956	1.134225
17.676907	137.103038	0.065061	0.033394	1.151486
18.503693	149.363796	0.070066	0.033236	1.167473
19.728490	160.664418	0.075071	0.033003	1.182228
20.999477	171.773541	0.080076	0.032762	1.196584
22.184787	182.934793	0.085080	0.032537	1.210795
23.216375	194.095046	0.090085	0.032340	1.224771
24.070369	205.211857	0.095090	0.032177	1.238460
25.310255	216.238220	0.100094	0.031942	1.252057
26.532413	227.352278	0.105099	0.031710	1.265603
27.171754	238.542643	0.110104	0.031587	1.278847
28.501071	249.519948	0.115109	0.031335	1.291999
29.290834	260.748305	0.120113	0.031184	1.305079
30.142394	271.788214	0.125118	0.031022	1.317843
30.937183	282.852639	0.130123	0.030870	1.330488
31.743864	293.967681	0.135128	0.030716	1.343074
32.583784	304.992938	0.140132	0.030555	1.355458
33.516679	316.110224	0.145137	0.030377	1.367865
34.413869	327.166422	0.150142	0.030206	1.380081
35.641764	338.168104	0.155146	0.029973	1.392258
36.475943	349.317877	0.160151	0.029814	1.404335
37.386867	360.368658	0.165156	0.029640	1.416234
38.327059	371.452653	0.170161	0.029461	1.428078
39.042896	382.544794	0.175165	0.029324	1.439750
40.052824	393.561378	0.180170	0.029132	1.451359
40.723183	404.719305	0.185175	0.029003	1.462894
41.735959	415.656080	0.190180	0.028811	1.474240
42.755170	426.769054	0.195184	0.028617	1.485677
43.612415	437.835762	0.200189	0.028453	1.496923
44.544015	448.899587	0.205194	0.028275	1.508107
45.191636	459.991719	0.210198	0.028151	1.519137
45.967935	471.040378	0.215203	0.028003	1.530090
46.664900	482.121810	0.220208	0.027869	1.540969
47.879562	493.074602	0.225213	0.027639	1.551825
48.629592	504.191837	0.230217	0.027495	1.562603
49.632470	515.231555	0.235222	0.027304	1.573320
50.312302	526.313267	0.240227	0.027174	1.583894
51.486441	537.310731	0.245232	0.026951	1.594484
52.043891	548.441528	0.250236	0.026844	1.604923
52.858630	559.478374	0.255241	0.026688	1.615293
53.499077	570.549689	0.260246	0.026565	1.625571
54.712036	581.472939	0.265250	0.026335	1.635834
55.423932	592.616972	0.270255	0.026198	1.646071
56.384086	603.644644	0.275260	0.026015	1.656219
56.953442	614.736294	0.280265	0.025906	1.666238
57.584836	625.792891	0.285269	0.025785	1.676186
58.054109	636.840370	0.290274	0.025694	1.686017
59.125362	647.809399	0.295279	0.025490	1.695908
59.764812	658.917352	0.300283	0.025367	1.705728
60.568611	669.920691	0.305288	0.025214	1.715453
61.412864	680.971811	0.310293	0.025053	1.725175
62.247960	692.017842	0.315298	0.024893	1.734835
62.943972	703.073095	0.320302	0.024760	1.744407
63.845556	714.089290	0.325307	0.024588	1.753955
64.644920	725.144483	0.330312	0.024435	1.763454
65.353962	736.224422	0.335317	0.024300	1.772895
65.809719	747.280077	0.340321	0.024211	1.782192
66.512625	758.281806	0.345326	0.024077	1.791468
67.243782	769.328986	0.350331	0.023937	1.800741
67.877826	780.357231	0.355335	0.023815	1.809923
68.737893	791.393127	0.360340	0.023651	1.819129
69.292661	802.467880	0.365345	0.023544	1.828233
69.864754	813.485112	0.370350	0.023434	1.837250
70.575245	824.540968	0.375354	0.023298	1.846293
71.204165	835.561329	0.380359	0.023177	1.855240
71.882277	846.596704	0.385364	0.023047	1.864170
72.621735	857.618757	0.390369	0.022906	1.873063
72.982306	868.740648	0.395373	0.022835	1.881888
73.557148	879.694346	0.400378	0.022725	1.890599
74.684012	890.701210	0.405383	0.022511	1.899460
75.221670	901.788758	0.410387	0.022407	1.908184
75.942835	912.823293	0.415392	0.022269	1.916876
76.308668	923.878421	0.420397	0.022198	1.925450
76.807584	934.931565	0.425402	0.022101	1.934019
77.450991	945.886991	0.430406	0.021978	1.942514
78.374659	956.924173	0.435411	0.021802	1.951107
79.515932	967.865912	0.440416	0.021585	1.959647
80.753914	978.995870	0.445421	0.021350	1.968315
81.319872	990.052468	0.450425	0.021241	1.976716
82.123118	1001.061755	0.455430	0.021087	1.985108
82.855912	1012.109601	0.460435	0.020947	1.993474
83.296570	1023.180668	0.465439	0.020862	2.001749
83.995111	1034.200536	0.470444	0.020728	2.010016
84.710274	1045.223000	0.475449	0.020591	2.018256
85.265034	1056.274293	0.480454	0.020484	2.026442
86.035637	1067.266023	0.485458	0.020337	2.034606
86.593292	1078.330408	0.490463	0.020230	2.042737
87.169092	1089.365745	0.495468	0.020119	2.050818
87.706157	1100.410808	0.500472	0.020015	2.058866
88.039342	1111.462147	0.505477	0.019950	2.066836
88.712691	1122.423336	0.510482	0.019821	2.074795
89.501277	1133.460086	0.515487	0.019670	2.082803
90.055677	1144.528608	0.520491	0.019563	2.090747
90.810073	1155.518912	0.525496	0.019419	2.098654
91.275895	1166.571193	0.530501	0.019329	2.106505
91.859407	1177.599079	0.535506	0.019217	2.114338
92.629599	1188.582052	0.540510	0.019070	2.122155
93.877973	1199.589599	0.545515	0.018833	2.130071
94.607841	1210.668116	0.550520	0.018693	2.137886
95.313176	1221.710873	0.555524	0.018558	2.145642
95.758990	1232.765099	0.560529	0.018471	2.153317
96.140379	1243.803756	0.565534	0.018397	2.160939
96.782118	1254.772570	0.570539	0.018274	2.168547
97.738932	1265.799553	0.575543	0.018092	2.176239
98.036302	1276.888249	0.580548	0.018033	2.183795
98.709302	1287.877436	0.585553	0.017904	2.191344
99.118183	1298.925822	0.590558	0.017825	2.198846
99.611616	1309.932470	0.595562	0.017729	2.206314
100.480580	1320.953377	0.600567	0.017564	2.213849
101.129921	1331.963385	0.605572	0.017439	2.221303
101.508578	1343.047944	0.610576	0.017365	2.228721
102.101859	1354.050329	0.615581	0.017251	2.236107
102.648215	1365.077328	0.620586	0.017146	2.243475
103.489597	1376.058556	0.625591	0.016985	2.250853
103.941588	1387.170396	0.630595	0.016898	2.258207
104.424658	1398.145217	0.635600	0.016804	2.265454
104.816592	1409.210358	0.640605	0.016728	2.272717
105.194446	1420.218347	0.645610	0.016655	2.279917
106.073066	1431.172378	0.650614	0.016487	2.287166
106.792850	1442.258220	0.655619	0.016349	2.294444
107.351563	1453.279402	0.660624	0.016242	2.301622
107.783607	1464.307839	0.665628	0.016158	2.308755
108.297763	1475.337385	0.670633	0.016059	2.315884
108.986672	1486.322703	0.675638	0.015927	2.323000
110.006620	1497.335147	0.680643	0.015733	2.330181
110.758828	1508.387573	0.685647	0.015589	2.337308
111.002941	1519.472913	0.690652	0.015540	2.344328
111.430765	1530.458672	0.695657	0.015457	2.351303
111.955412	1541.476946	0.700661	0.015356	2.358298
112.603338	1552.500275	0.705666	0.015232	2.365300
113.213310	1563.512473	0.710671	0.015114	2.372267
113.810929	1574.561835	0.715676	0.015000	2.379233
113.987567	1585.607537	0.720680	0.014964	2.386091
114.747398	1596.556471	0.725685	0.014818	2.392988
115.748617	1607.582636	0.730690	0.014628	2.399961
116.387597	1618.628376	0.735695	0.014505	2.406853
117.000184	1629.697009	0.740699	0.014387	2.413733
117.427406	1640.676757	0.745704	0.014305	2.420502
118.011041	1651.733888	0.750709	0.014192	2.427331
118.352781	1662.754682	0.755713	0.014125	2.434070
118.834846	1673.762369	0.760718	0.014032	2.440810
119.470608	1684.778670	0.765723	0.013910	2.447567
120.090748	1695.822110	0.770728	0.013791	2.454318
120.406132	1706.839324	0.775732	0.013729	2.460976
120.884243	1717.848362	0.780737	0.013637	2.467642
121.577586	1728.876456	0.785742	0.013504	2.474343
122.247215	1739.888453	0.790747	0.013376	2.481012
122.947329	1750.908205	0.795751	0.013242	2.487673
123.402330	1761.985627	0.800756	0.013153	2.494302
123.716792	1772.971982	0.805761	0.013092	2.500834
124.102953	1784.028080	0.810765	0.013016	2.507403
124.718760	1794.996783	0.815770	0.012898	2.513948
125.316024	1806.029854	0.820775	0.012783	2.520509
125.708912	1817.071345	0.825780	0.012707	2.527019
126.161430	1828.113970	0.830784	0.012619	2.533524
126.466677	1839.104701	0.835789	0.012559	2.539955
127.249205	1850.092693	0.840794	0.012410	2.546457
128.014543	1861.124913	0.845799	0.012263	2.552965
128.574918	1872.171552	0.850803	0.012156	2.559426
129.100187	1883.211107	0.855808	0.012054	2.565860
129.541859	1894.232601	0.860813	0.011969	2.572252
129.814349	1905.312485	0.865817	0.011915	2.578630
130.269360	1916.263578	0.870822	0.011827	2.584953
130.824331	1927.249056	0.875827	0.011720	2.591297
131.481634	1938.303270	0.880832	0.011594	2.597684
131.891308	1949.316309	0.885836	0.011514	2.603986
132.425842	1960.348457	0.890841	0.011411	2.610307
132.862898	1971.351521	0.895846	0.011326	2.616578
133.623322	1982.373660	0.900850	0.011181	2.622903
133.993547	1993.420016	0.905855	0.011109	2.629156
134.340376	2004.426242	0.910860	0.011041	2.635367
134.782272	2015.456063	0.915865	0.010955	2.641594
135.113921	2026.508852	0.920869	0.010890	2.647799
135.765952	2037.450532	0.925874	0.010765	2.653985
136.356244	2048.507139	0.930879	0.010652	2.660209
136.785507	2059.505184	0.935884	0.010569	2.666357
137.088459	2070.565886	0.940888	0.010509	2.672504
137.524873	2081.528236	0.945893	0.010424	2.678606
137.996119	2092.572941	0.950898	0.010333	2.684744
138.514105	2103.595615	0.955902	0.010233	2.690865
138.958877	2114.627722	0.960907	0.010147	2.696964
139.351989	2125.632850	0.965912	0.010071	2.703026
140.137788	2136.613958	0.970917	0.009920	2.709128
140.605631	2147.681964	0.975921	0.009830	2.715209
141.164759	2158.673819	0.980926	0.009722	2.721251
141.824121	2169.718898	0.985931	0.009596	2.727325
142.343911	2180.724263	0.990936	0.009496	2.733340
142.853988	2191.736653	0.995940	0.009397	2.739344
143.239339	2202.783885	1.000945	0.009322	2.745332
143.942474	2213.782299	1.005950	0.009187	2.751334
144.442153	2224.806183	1.010954	0.009091	2.757303
145.038035	2235.810372	1.015959	0.008976	2.763264
145.573504	2246.852690	1.020964	0.008873	2.769223
145.886189	2257.878340	1.025969	0.008812	2.775122
146.356830	2268.906261	1.030973	0.008721	2.781037
146.884649	2279.884775	1.035978	0.008619	2.786922
147.361297	2290.948772	1.040983	0.008527	2.792831
147.763370	2301.944735	1.045988	0.008449	2.798679
148.084571	2312.988774	1.050992	0.008386	2.804527
148.405714	2324.014508	1.055997	0.008323	2.810353
148.602067	2335.045477	1.061002	0.008283	2.816150
149.105263	2346.007174	1.066006	0.008186	2.821948
149.816634	2357.034365	1.071011	0.008050	2.827802
150.228046	2368.075312	1.076016	0.007970	2.833602
150.458340	2379.104398	1.081021	0.007924	2.839356
150.813358	2390.110920	1.086025	0.007855	2.845105
151.237679	2401.150814	1.091030	0.007772	2.850872
151.535050	2412.147811	1.096035	0.007714	2.856584
152.291405	2423.138083	1.101039	0.007569	2.862354
152.613564	2434.185335	1.106044	0.007506	2.868073
152.994636	2445.222241	1.111049	0.007432	2.873784
153.205973	2456.238364	1.116054	0.007389	2.879447
153.792859	2467.233336	1.121058	0.007276	2.885147
154.095774	2478.282052	1.126063	0.007217	2.890818
154.499028	2489.289449	1.131068	0.007138	2.896472
154.832782	2500.299449	1.136073	0.007073	2.902106
155.231727	2511.308811	1.141077	0.006995	2.907739
155.549147	2522.342033	1.146082	0.006933	2.913360
156.050874	2533.345578	1.151087	0.006836	2.918984
156.436241	2544.367942	1.156091	0.006761	2.924588
156.855219	2555.410985	1.161096	0.006680	2.930197
157.282662	2566.387669	1.166101	0.006597	2.935763
157.902816	2577.418852	1.171106	0.006478	2.941375
158.507645	2588.419524	1.176110	0.006362	2.946959
158.992790	2599.471858	1.181115	0.006268	2.952540
159.281811	2610.475138	1.186120	0.006211	2.958056
159.912190	2621.497738	1.191125	0.006090	2.963622
160.321427	2632.526806	1.196129	0.006010	2.969148
160.809962	2643.529504	1.201134	0.005916	2.974663
161.150165	2654.569553	1.206139	0.005849	2.980163
161.573967	2665.577221	1.211143	0.005767	2.985649
161.857081	2676.601706	1.216148	0.005711	2.991113
162.350968	2687.604110	1.221153	0.005616	2.996587
162.803633	2698.629409	1.226158	0.005528	3.002057
163.281035	2709.634018	1.231162	0.005436	3.007509
163.716184	2720.673763	1.236167	0.005352	3.012963
164.212858	2731.684736	1.241172	0.005256	3.018401
164.694729	2742.678813	1.246177	0.005163	3.023819
165.124978	2753.735016	1.251181	0.005079	3.029250
165.472256	2764.720999	1.256186	0.005011	3.034626
165.851597	2775.788940	1.261191	0.004937	3.040035
166.136222	2786.774648	1.266195	0.004881	3.045382
166.609104	2797.813179	1.271200	0.004790	3.050772
166.911314	2808.788293	1.276205	0.004730	3.056097
167.452229	2819.816422	1.281210	0.004626	3.061473
167.707152	2830.863722	1.286214	0.004575	3.066807
168.085159	2841.861269	1.291219	0.004502	3.072126
168.378433	2852.874714	1.296224	0.004444	3.077430
168.837652	2863.900109	1.301228	0.004355	3.082755
169.131376	2874.937757	1.306233	0.004297	3.088053
169.472472	2885.931343	1.311238	0.004231	3.093328
169.790150	2896.960877	1.316243	0.004168	3.098607
170.034093	2907.980605	1.321247	0.004120	3.103863
170.490655	2918.965002	1.326252	0.004031	3.109122
171.040727	2930.011018	1.331257	0.003925	3.114414
171.280195	2941.028204	1.336262	0.003878	3.119641
171.757381	2952.045837	1.341266	0.003785	3.124892
171.838407	2963.091442	1.346271	0.003768	3.130092
172.374372	2974.060954	1.351276	0.003664	3.135311
172.638525	2985.109862	1.356280	0.003612	3.140521
173.292051	2996.075753	1.361285	0.003487	3.145736
173.698853	3007.132925	1.366290	0.003408	3.150952
174.073699	3018.147796	1.371295	0.003334	3.156135
174.382843	3029.164804	1.376299	0.003274	3.161301
174.796578	3040.174277	1.381304	0.003193	3.166469
175.207151	3051.193663	1.386309	0.003114	3.171633
175.672028	3062.208835	1.391314	0.003024	3.176794
176.084588	3073.217099	1.396318	0.002944	3.181937
176.412243	3084.265635	1.401323	0.002879	3.187078
176.775432	3095.262991	1.406328	0.002808	3.192192
177.249956	3106.288790	1.411332	0.002717	3.197325
177.609517	3117.294746	1.416337	0.002646	3.202426
178.197348	3128.302809	1.421342	0.002533	3.207550
178.538190	3139.356328	1.426347	0.002467	3.212653
178.956523	3150.338995	1.431351	0.002386	3.217726
179.109073	3161.370459	1.436356	0.002354	3.222779
179.479818	3172.396780	1.441361	0.002282	3.227849
179.639709	3183.403475	1.446366	0.002249	3.232876
179.944101	3194.446324	1.451370	0.002189	3.237929
180.221368	3205.415308	1.456375	0.002135	3.242938
180.649214	3216.467927	1.461380	0.002052	3.247996
180.845487	3227.465873	1.466384	0.002012	3.252992
181.348736	3238.478554	1.471389	0.001915	3.258026
181.781895	3249.472733	1.476394	0.001831	3.263035
182.289805	3260.533653	1.481399	0.001733	3.268076
182.681182	3271.528689	1.486403	0.001657	3.273064
183.162063	3282.563347	1.491408	0.001564	3.278074
183.533775	3293.557276	1.496413	0.001491	3.283044
183.953273	3304.587434	1.501417	0.001410	3.288028
184.368889	3315.604364	1.506422	0.001329	3.292999
184.786570	3326.610430	1.511427	0.001248	3.297957
185.215204	3337.633168	1.516432	0.001165	3.302917
185.501127	3348.679066	1.521436	0.001108	3.307861
185.725544	3359.672650	1.526441	0.001064	3.312767
186.013573	3370.694308	1.531446	0.001007	3.317686
186.374045	3381.701461	1.536451	0.000936	3.322600
186.980511	3392.708589	1.541455	0.000820	3.327538
187.111705	3403.743999	1.546460	0.000793	3.332422
187.399190	3414.768541	1.551465	0.000736	3.337313
187.803135	3425.757443	1.556469	0.000657	3.342195
188.342321	3436.790803	1.561474	0.000553	3.347107
188.473181	3447.806433	1.566479	0.000526	3.351953
188.972128	3458.810773	1.571484	0.000430	3.356832
189.395768	3469.822798	1.576488	0.000348	3.361698
189.719448	3480.876443	1.581493	0.000284	3.366563
189.964340	3491.854569	1.586498	0.000235	3.371379
190.434715	3502.887274	1.591503	0.000144	3.376238
190.955659	3513.876873	1.596507	0.000044	3.381078
191.588333	3524.923422	1.601512	-0.000077	3.385950
191.758081	3535.935075	1.606517	-0.000112	3.390742
192.236417	3546.943361	1.611521	-0.000204	3.395564
192.544941	3557.967460	1.616526	-0.000265	3.400366
192.918781	3568.983430	1.621531	-0.000338	3.405165
193.035399	3580.032604	1.626536	-0.000363	3.409940
193.398640	3591.017839	1.631540	-0.000433	3.414711
193.985480	3602.013314	1.636545	-0.000546	3.419506
194.565879	3613.030948	1.641550	-0.000658	3.424303
195.025512	3624.060194	1.646555	-0.000747	3.429083
195.426845	3635.097342	1.651559	-0.000825	3.433854
195.804758	3646.095296	1.656564	-0.000899	3.438598
196.155726	3657.106737	1.661569	-0.000967	3.443338
196.520862	3668.135637	1.666573	-0.001038	3.448081
197.100301	3679.129712	1.671578	-0.001150	3.452827
197.418679	3690.160744	1.676583	-0.001212	3.457552
197.784225	3701.184602	1.681588	-0.001284	3.462273
197.965243	3712.200923	1.686592	-0.001320	3.466962
198.356849	3723.196574	1.691597	-0.001397	3.471661
198.619592	3734.240672	1.696602	-0.001449	3.476359
199.105772	3745.234947	1.701606	-0.001543	3.481056
199.276454	3756.274680	1.706611	-0.001577	3.485728
199.655231	3767.270177	1.711616	-0.001651	3.490400
199.881187	3778.289865	1.716621	-0.001696	3.495058
200.416480	3789.288309	1.721625	-0.001799	3.499737
200.615109	3800.332769	1.726630	-0.001839	3.504389
200.915969	3811.353022	1.731635	-0.001899	3.509037
201.267105	3822.355793	1.736640	-0.001967	3.513678
201.581394	3833.389450	1.741644	-0.002029	3.518320
201.805414	3844.391342	1.746649	-0.002074	3.522933
202.325328	3855.388271	1.751654	-0.002174	3.527572
203.100886	3866.405925	1.756658	-0.002322	3.532241
203.440201	3877.448790	1.761663	-0.002389	3.536866
203.654451	3888.432579	1.766668	-0.002432	3.541446
204.173027	3899.468394	1.771673	-0.002532	3.546076
204.566303	3910.466876	1.776677	-0.002608	3.550670
204.896807	3921.493881	1.781682	-0.002673	3.555262
205.176475	3932.520386	1.786687	-0.002728	3.559843
205.483170	3943.526783	1.791692	-0.002788	3.564413
205.765906	3954.551754	1.796696	-0.002844	3.568982
206.186404	3965.548771	1.801701	-0.002926	3.573548
206.589538	3976.600670	1.806706	-0.003004	3.578129
206.878138	3987.572850	1.811710	-0.003061	3.582659
207.032056	3998.634173	1.816715	-0.003093	3.587205
207.179782	4009.632641	1.821720	-0.003123	3.591719
207.464306	4020.632987	1.826725	-0.003179	3.596243
207.966881	4031.636698	1.831729	-0.003276	3.600786
208.425213	4042.678836	1.836734	-0.003365	3.605334
208.782655	4053.684670	1.841739	-0.003435	3.609851
208.931132	4064.704885	1.846744	-0.003465	3.614345
209.214759	4075.723028	1.851748	-0.003521	3.618847
209.712819	4086.729788	1.856753	-0.003617	3.623362
210.160198	4097.778839	1.861758	-0.003704	3.627883
210.532699	4108.809385	1.866762	-0.003777	3.632383
211.058744	4119.814837	1.871767	-0.003878	3.636883
211.398296	4130.838796	1.876772	-0.003945	3.641366
212.053511	4141.847532	1.881777	-0.004070	3.645870
212.402388	4152.859693	1.886781	-0.004138	3.650337
212.813476	4163.892579	1.891786	-0.004218	3.654814
212.989238	4174.902476	1.896791	-0.004254	3.659251
213.545664	4185.922394	1.901795	-0.004361	3.663726
213.679529	4196.954182	1.906800	-0.004389	3.668157
214.022524	4207.957029	1.911805	-0.004456	3.672592
214.372473	4218.979483	1.916810	-0.004524	3.677031
214.695455	4229.981122	1.921814	-0.004588	3.681453
214.785964	4241.026524	1.926819	-0.004608	3.685863
215.083399	4252.019374	1.931824	-0.004666	3.690268
215.321697	4263.026915	1.936829	-0.004713	3.694667
215.881368	4274.021418	1.941833	-0.004821	3.699090
216.204101	4285.073968	1.946838	-0.004885	3.703505
216.681698	4296.083126	1.951843	-0.004977	3.707914
216.934507	4307.094744	1.956847	-0.005027	3.712295
217.730963	4318.073311	1.961852	-0.005179	3.716714
218.384832	4329.094716	1.966857	-0.005305	3.721130
218.887039	4340.128661	1.971862	-0.005402	3.725530
219.304750	4351.155901	1.976866	-0.005483	3.729913
219.462666	4362.174659	1.981871	-0.005515	3.734261
219.843428	4373.187827	1.986876	-0.005589	3.738625
220.323397	4384.190195	1.991881	-0.005682	3.742989
220.663136	4395.232391	1.996885	-0.005748	3.747350
221.005738	4406.223149	2.001890	-0.005815	3.751685
