Wed Nov 23 17:50:12 2022

Number of Points = 2200
Depth (nm)	Load (µN)	Time (s)	Depth (V)	Load (V)
-1.295216	1.315864	0.000000	-0.062971	1.216666
0.000000	8.504274	0.005005	-0.063216	1.225803
1.602246	18.094902	0.010009	-0.063519	1.237832
2.905636	28.959671	0.015014	-0.063766	1.251101
3.958000	40.077684	0.020019	-0.063966	1.264417
5.040134	51.154228	0.025024	-0.064172	1.277558
6.045150	62.258151	0.030028	-0.064363	1.290563
7.003428	73.417042	0.035033	-0.064546	1.303481
7.703346	84.496367	0.040038	-0.064680	1.316079
8.521662	95.571418	0.045043	-0.064836	1.328600
9.050338	106.688666	0.050047	-0.064938	1.340934
9.762365	117.732678	0.055052	-0.065075	1.353149
10.390763	128.832706	0.060057	-0.065195	1.365282
10.930419	139.923856	0.065061	-0.065299	1.377264
11.655898	150.959216	0.070066	-0.065438	1.389154
11.938896	162.119268	0.075071	-0.065494	1.400906
12.255390	173.171095	0.080076	-0.065556	1.412461
12.871132	184.189018	0.085080	-0.065674	1.423999
13.399163	195.262977	0.090085	-0.065776	1.435467
14.020124	206.305958	0.095090	-0.065896	1.446847
14.561862	217.414125	0.100094	-0.066000	1.458175
14.876301	228.487127	0.105099	-0.066062	1.469298
15.472332	239.508918	0.110104	-0.066176	1.480388
15.835390	250.598380	0.115109	-0.066247	1.491379
36.163104	257.830991	0.120113	-0.070063	1.505496
39.694013	272.109147	0.125118	-0.070729	1.520443
40.457177	283.685022	0.130123	-0.070875	1.531737
41.307497	294.758578	0.135128	-0.071038	1.542505
42.291157	305.812948	0.140132	-0.071225	1.553224
43.662677	316.783027	0.145137	-0.071485	1.563919
44.689503	327.927160	0.150142	-0.071680	1.574588
45.540640	338.973173	0.155146	-0.071843	1.585038
46.418911	350.043642	0.160151	-0.072010	1.595449
47.236714	361.112815	0.165156	-0.072167	1.605772
48.520916	372.077853	0.170161	-0.072410	1.616084
49.579107	383.173274	0.175165	-0.072612	1.626375
50.565140	394.221637	0.180170	-0.072799	1.636535
51.484314	405.285081	0.185175	-0.072975	1.646625
52.671651	416.289394	0.190180	-0.073200	1.656685
53.444514	427.391121	0.195184	-0.073348	1.666640
54.178062	438.477843	0.200189	-0.073488	1.676511
55.218135	449.414664	0.205194	-0.073686	1.686288
56.783765	460.432750	0.210198	-0.073983	1.696236
57.398622	471.629355	0.215203	-0.074101	1.705992
58.194018	482.617848	0.220208	-0.074253	1.715570
59.166135	493.631982	0.225213	-0.074438	1.725168
59.996236	504.720275	0.230217	-0.074596	1.734733
60.719589	515.751532	0.235222	-0.074735	1.744166
61.677776	526.743109	0.240227	-0.074917	1.753584
62.394154	537.879043	0.245232	-0.075055	1.763000
63.307235	548.851579	0.250236	-0.075229	1.772288
64.021987	559.899120	0.255241	-0.075365	1.781531
65.568282	570.833696	0.260246	-0.075658	1.790872
66.544353	581.964170	0.265250	-0.075844	1.800160
67.569453	592.998469	0.270255	-0.076039	1.809337
68.526452	604.062610	0.275260	-0.076222	1.818472
69.466795	615.061795	0.280265	-0.076401	1.827504
70.470256	626.142156	0.285269	-0.076592	1.836573
71.394201	637.155825	0.290274	-0.076768	1.845523
72.321006	648.209212	0.295279	-0.076944	1.854461
73.024184	659.280982	0.300283	-0.077079	1.863309
73.575558	670.337447	0.305288	-0.077185	1.872062
74.526976	681.296638	0.310293	-0.077367	1.880807
75.627753	692.331154	0.315298	-0.077576	1.889608
76.557131	703.385371	0.320302	-0.077753	1.898338
77.223716	714.467646	0.325307	-0.077881	1.906979
78.014663	725.478728	0.330312	-0.078032	1.915560
79.070538	736.458232	0.335317	-0.078233	1.924147
79.887946	747.570635	0.340321	-0.078389	1.932734
80.635106	758.567123	0.345326	-0.078532	1.941178
81.695754	769.554602	0.350331	-0.078734	1.949658
82.468032	780.666552	0.355335	-0.078881	1.958120
83.196822	791.694722	0.360340	-0.079021	1.966472
83.502468	802.772323	0.365345	-0.079081	1.974718
84.458282	813.710194	0.370350	-0.079263	1.982991
85.405686	824.756176	0.375354	-0.079443	1.991305
86.146613	835.827000	0.380359	-0.079585	1.999552
87.175602	846.790637	0.385364	-0.079781	2.007758
87.904315	857.917109	0.390369	-0.079920	2.015973
88.447396	868.913611	0.395373	-0.080025	2.024016
89.660225	879.867316	0.400378	-0.080255	2.032160
90.651455	890.956442	0.405383	-0.080444	2.040314
91.640373	901.966362	0.410387	-0.080632	2.048378
92.625218	913.008658	0.415392	-0.080820	2.056432
93.354465	924.065033	0.420397	-0.080959	2.064402
94.159148	935.088381	0.425402	-0.081113	2.072337
95.023851	946.118085	0.430406	-0.081278	2.080259
95.957724	957.094782	0.435411	-0.081456	2.088131
96.780911	968.221076	0.440416	-0.081613	2.096050
97.265144	979.230703	0.445421	-0.081707	2.103779
98.094686	990.229741	0.450425	-0.081865	2.111553
98.677892	1001.277994	0.455430	-0.081977	2.119274
100.030508	1012.231410	0.460435	-0.082234	2.127081
100.588339	1023.378848	0.465439	-0.082341	2.134808
101.294942	1034.337478	0.470444	-0.082477	2.142412
102.315422	1045.365544	0.475449	-0.082671	2.150108
103.221226	1056.434573	0.480454	-0.082844	2.157777
103.789838	1067.450469	0.485458	-0.082953	2.165307
104.923823	1078.458315	0.490463	-0.083169	2.172933
105.811351	1089.468342	0.495468	-0.083338	2.180478
106.960634	1100.506335	0.500472	-0.083556	2.188073
107.598035	1111.581468	0.505477	-0.083679	2.195553
108.284697	1122.599829	0.510482	-0.083810	2.202980
108.914565	1133.630286	0.515487	-0.083931	2.210378
109.828840	1144.623320	0.520491	-0.084105	2.217788
110.615317	1155.653096	0.525496	-0.084256	2.225170
111.368636	1166.710856	0.530501	-0.084400	2.232537
111.789911	1177.773174	0.535506	-0.084482	2.239811
112.673857	1188.739574	0.540510	-0.084650	2.247100
113.234808	1199.788546	0.545515	-0.084758	2.254348
114.255975	1210.788615	0.550520	-0.084952	2.261640
114.847590	1221.847558	0.555524	-0.085066	2.268854
115.644568	1232.838966	0.560529	-0.085218	2.276046
116.200666	1243.900579	0.565534	-0.085326	2.283208
116.889712	1254.925272	0.570539	-0.085458	2.290353
117.590901	1265.927634	0.575543	-0.085592	2.297463
118.333159	1276.974633	0.580548	-0.085734	2.304588
118.899618	1287.986648	0.585553	-0.085843	2.311632
119.575809	1299.020708	0.590558	-0.085972	2.318691
120.088603	1310.037614	0.595562	-0.086071	2.325684
121.196909	1321.040285	0.600567	-0.086282	2.332769
121.627468	1332.121047	0.605572	-0.086366	2.339742
122.329630	1343.095792	0.610576	-0.086500	2.346684
123.019297	1354.161183	0.615581	-0.086632	2.353659
123.727604	1365.128927	0.620586	-0.086768	2.360557
124.239389	1376.201037	0.625591	-0.086867	2.367458
125.115357	1387.224327	0.630595	-0.087034	2.374383
125.537398	1398.258232	0.635600	-0.087116	2.381203
126.105856	1409.252645	0.640605	-0.087225	2.388008
126.530449	1420.322973	0.645610	-0.087307	2.394811
127.051169	1431.322845	0.650614	-0.087408	2.401571
127.617529	1442.330993	0.655619	-0.087517	2.408327
128.661222	1453.321234	0.660624	-0.087715	2.415146
129.101487	1464.414603	0.665628	-0.087801	2.421889
129.731360	1475.402032	0.670633	-0.087922	2.428587
130.088030	1486.446921	0.675638	-0.087991	2.435247
131.025404	1497.429592	0.680643	-0.088170	2.441965
131.483030	1508.487462	0.685647	-0.088259	2.448616
132.077362	1519.496386	0.690652	-0.088373	2.455246
132.521697	1530.539261	0.695657	-0.088459	2.461849
133.264094	1541.521016	0.700661	-0.088601	2.468455
133.654764	1552.608249	0.705666	-0.088677	2.475039
134.301355	1563.574094	0.710671	-0.088801	2.481582
134.788188	1574.642294	0.715676	-0.088895	2.488138
135.435797	1585.625723	0.720680	-0.089019	2.494657
135.810748	1596.685729	0.725685	-0.089093	2.501152
136.378830	1607.689307	0.730690	-0.089202	2.507633
136.809240	1618.725319	0.735695	-0.089285	2.514091
137.742356	1629.664751	0.740699	-0.089463	2.520570
138.310207	1640.764647	0.745704	-0.089572	2.527056
138.743005	1651.803332	0.750709	-0.089656	2.533466
139.266198	1662.780787	0.755713	-0.089757	2.539841
140.069122	1673.797304	0.760718	-0.089911	2.546273
140.556485	1684.857817	0.765723	-0.090005	2.552657
141.266215	1695.849894	0.770728	-0.090141	2.559025
141.723717	1706.883445	0.775732	-0.090229	2.565356
142.294943	1717.908400	0.780737	-0.090339	2.571686
142.707266	1729.017529	0.785742	-0.090419	2.578020
143.138381	1739.951649	0.790747	-0.090503	2.584243
143.859075	1750.949671	0.795751	-0.090641	2.590538
144.188066	1762.007339	0.800756	-0.090705	2.596782
144.891656	1773.002947	0.805761	-0.090840	2.603042
145.423105	1784.028416	0.810765	-0.090943	2.609273
146.133645	1794.998246	0.815770	-0.091079	2.615490
147.513960	1806.021029	0.820775	-0.091340	2.621840
148.245840	1817.092130	0.825780	-0.091480	2.628086
148.750366	1828.110048	0.830784	-0.091578	2.634248
149.345983	1839.129766	0.835789	-0.091692	2.640413
149.853448	1850.166132	0.840794	-0.091790	2.646557
150.241007	1861.208034	0.845799	-0.091866	2.652668
150.948493	1872.166540	0.850803	-0.092001	2.658775
151.783122	1883.192387	0.855808	-0.092160	2.664927
152.471666	1894.242144	0.860813	-0.092292	2.671052
152.868701	1905.274278	0.865817	-0.092370	2.677104
153.676084	1916.260692	0.870822	-0.092524	2.683186
154.131813	1927.298324	0.875827	-0.092612	2.689223
154.823888	1938.312407	0.880832	-0.092745	2.695274
155.374676	1949.340211	0.885836	-0.092851	2.701294
155.987391	1960.366275	0.890841	-0.092968	2.707310
156.366477	1971.406376	0.895846	-0.093042	2.713281
156.753055	1982.402781	0.900850	-0.093118	2.719216
157.241025	1993.437080	0.905855	-0.093212	2.725176
157.740880	2004.448334	0.910860	-0.093308	2.731112
158.373475	2015.460888	0.915865	-0.093430	2.737058
158.919851	2026.482644	0.920869	-0.093535	2.742981
159.631551	2037.479024	0.925874	-0.093671	2.748906
160.039945	2048.531861	0.930879	-0.093751	2.754797
160.581378	2059.517442	0.935884	-0.093855	2.760662
161.101260	2070.560585	0.940888	-0.093955	2.766541
161.507785	2081.571838	0.945893	-0.094034	2.772372
161.835920	2092.569557	0.950898	-0.094099	2.778171
162.395813	2103.592360	0.955902	-0.094206	2.784009
163.273885	2114.597260	0.960907	-0.094374	2.789876
163.795577	2125.648489	0.965912	-0.094475	2.795697
164.200676	2136.675684	0.970917	-0.094553	2.801475
164.655551	2147.690782	0.975921	-0.094641	2.807243
165.201010	2158.698643	0.980926	-0.094746	2.813009
165.716412	2169.708700	0.985931	-0.094846	2.818760
166.205869	2180.719472	0.990936	-0.094940	2.824495
166.705306	2191.772081	0.995940	-0.095037	2.830241
167.164288	2202.786944	1.000945	-0.095126	2.835950
167.713808	2213.790558	1.005950	-0.095232	2.841656
168.045140	2224.847289	1.010954	-0.095296	2.847343
168.600518	2235.825096	1.015959	-0.095403	2.853013
169.000299	2246.863341	1.020964	-0.095481	2.858679
169.287140	2257.868553	1.025969	-0.095538	2.864299
169.692577	2268.916233	1.030973	-0.095617	2.869947
170.482948	2279.871379	1.035978	-0.095768	2.875598
171.212645	2290.941419	1.040983	-0.095907	2.881285
171.543504	2301.963362	1.045988	-0.095972	2.886876
172.122017	2312.981896	1.050992	-0.096083	2.892491
172.565591	2323.970691	1.055997	-0.096169	2.898061
173.220270	2334.993724	1.061002	-0.096295	2.903669
173.586290	2346.045279	1.066006	-0.096366	2.909236
173.847973	2357.044702	1.071011	-0.096418	2.914750
174.435335	2368.056222	1.076016	-0.096531	2.920310
174.998285	2379.087370	1.081021	-0.096639	2.925864
175.468644	2390.109504	1.086025	-0.096730	2.931390
175.682003	2401.125861	1.091030	-0.096773	2.936864
176.162270	2412.125930	1.096035	-0.096866	2.942359
176.794085	2423.138736	1.101039	-0.096987	2.947873
177.238268	2434.178702	1.106044	-0.097073	2.953362
177.799652	2445.175010	1.111049	-0.097181	2.958836
178.135398	2456.236765	1.116054	-0.097247	2.964299
178.860801	2467.211475	1.121058	-0.097386	2.969767
179.114384	2478.281998	1.126063	-0.097436	2.975201
179.440039	2489.267904	1.131068	-0.097500	2.980596
179.734067	2500.303525	1.136073	-0.097558	2.985999
180.294551	2511.311695	1.141077	-0.097666	2.991419
180.662366	2522.303347	1.146082	-0.097738	2.996793
181.343987	2533.320062	1.151087	-0.097868	3.002214
181.736162	2544.369596	1.156091	-0.097945	3.007599
182.133018	2555.379557	1.161096	-0.098022	3.012957
182.255196	2566.421404	1.166101	-0.098047	3.018280
182.832020	2577.380388	1.171106	-0.098158	3.023620
183.134887	2588.455443	1.176110	-0.098218	3.028966
183.607792	2599.440253	1.181115	-0.098309	3.034284
184.027703	2610.472419	1.186120	-0.098391	3.039608
184.686883	2621.473578	1.191125	-0.098517	3.044941
185.256526	2632.515437	1.196129	-0.098627	3.050272
185.580499	2643.514537	1.201134	-0.098690	3.055538
185.930197	2654.562931	1.206139	-0.098759	3.060822
186.232926	2665.545621	1.211143	-0.098818	3.066059
186.591013	2676.580669	1.216148	-0.098888	3.071320
186.978674	2687.583859	1.221153	-0.098964	3.076560
187.308713	2698.635869	1.226158	-0.099028	3.081807
187.759843	2709.612141	1.231162	-0.099116	3.087026
188.212094	2720.645123	1.236167	-0.099203	3.092262
188.746638	2731.650368	1.241172	-0.099306	3.097488
189.309076	2742.675260	1.246177	-0.099415	3.102718
189.680696	2753.698436	1.251181	-0.099487	3.107912
190.182731	2764.712888	1.256186	-0.099584	3.113111
190.719761	2775.724603	1.261191	-0.099688	3.118305
191.122340	2786.771100	1.266195	-0.099766	3.123488
191.504506	2797.762123	1.271200	-0.099840	3.128633
191.754526	2808.813680	1.276205	-0.099890	3.133781
192.361819	2819.771827	1.281210	-0.100007	3.138925
192.625598	2830.838717	1.286214	-0.100059	3.144064
193.040779	2841.830975	1.291219	-0.100139	3.149180
193.267555	2852.884209	1.296224	-0.100185	3.154291
193.637543	2863.883285	1.301228	-0.100257	3.159388
194.053592	2874.887801	1.306233	-0.100338	3.164486
194.673912	2885.903750	1.311238	-0.100457	3.169607
194.938976	2896.942067	1.316243	-0.100509	3.174683
195.253021	2907.938899	1.321247	-0.100571	3.179738
195.663382	2918.958607	1.326252	-0.100651	3.184809
196.082745	2929.973076	1.331257	-0.100732	3.189870
196.450047	2940.998490	1.336262	-0.100804	3.194921
196.889245	2952.034075	1.341266	-0.100889	3.199978
197.281963	2963.027072	1.346271	-0.100965	3.205002
197.746297	2974.044755	1.351276	-0.101055	3.210038
198.117981	2985.059085	1.356280	-0.101128	3.215052
198.581119	2996.077180	1.361285	-0.101217	3.220073
198.895433	3007.107057	1.366290	-0.101279	3.225071
199.196853	3018.135792	1.371295	-0.101338	3.230059
199.479581	3029.145411	1.376299	-0.101394	3.235029
199.874072	3040.134639	1.381304	-0.101471	3.239996
200.402189	3051.163035	1.386309	-0.101573	3.244990
200.780404	3062.192982	1.391314	-0.101646	3.249958
201.280284	3073.185791	1.396318	-0.101743	3.254917
201.600967	3084.235066	1.401323	-0.101806	3.259870
201.867381	3095.235313	1.406328	-0.101858	3.264788
202.311529	3106.262407	1.411332	-0.101944	3.269732
202.532156	3117.286240	1.416337	-0.101989	3.274639
203.083380	3128.259726	1.421342	-0.102095	3.279558
203.402330	3139.321862	1.426347	-0.102157	3.284480
203.737425	3150.325425	1.431351	-0.102223	3.289370
204.135437	3161.325738	1.436356	-0.102300	3.294259
204.447188	3172.366503	1.441361	-0.102362	3.299149
204.864032	3183.359336	1.446366	-0.102442	3.304022
205.180528	3194.390747	1.451370	-0.102505	3.308893
205.482339	3205.399299	1.456375	-0.102564	3.313745
205.898551	3216.437815	1.461380	-0.102645	3.318617
206.273133	3227.423015	1.466384	-0.102718	3.323453
206.687068	3238.452977	1.471389	-0.102798	3.328307
207.164576	3249.456429	1.476394	-0.102890	3.333149
207.522453	3260.492679	1.481399	-0.102960	3.337984
207.731551	3271.506307	1.486403	-0.103002	3.342784
208.269926	3282.523081	1.491408	-0.103106	3.347619
208.482342	3293.544212	1.496413	-0.103149	3.352409
208.809830	3304.559264	1.501417	-0.103213	3.357203
209.116517	3315.576624	1.506422	-0.103273	3.361989
209.492302	3326.596504	1.511427	-0.103346	3.366777
209.736718	3337.600011	1.516432	-0.103395	3.371535
209.950363	3348.635153	1.521436	-0.103438	3.376297
210.453418	3359.625235	1.526441	-0.103535	3.381067
210.891265	3370.658942	1.531446	-0.103620	3.385841
211.493956	3381.638019	1.536451	-0.103736	3.390605
212.035408	3392.687444	1.541455	-0.103840	3.395384
212.369908	3403.708407	1.546460	-0.103905	3.400120
212.967489	3414.697929	1.551465	-0.104020	3.404867
213.384307	3425.749676	1.556469	-0.104101	3.409613
213.694707	3436.750913	1.561474	-0.104162	3.414318
213.842982	3447.796145	1.566479	-0.104193	3.419016
214.313873	3458.769987	1.571484	-0.104284	3.423715
214.682561	3469.808941	1.576488	-0.104356	3.428423
215.205497	3480.784713	1.581493	-0.104457	3.433115
215.578896	3491.839338	1.586498	-0.104529	3.437817
215.858615	3502.843125	1.591503	-0.104585	3.442481
216.113492	3513.878575	1.596507	-0.104635	3.447148
216.472445	3524.887314	1.601512	-0.104705	3.451810
216.713816	3535.912896	1.606517	-0.104753	3.456459
216.979454	3546.910346	1.611521	-0.104806	3.461092
217.265013	3557.941260	1.616526	-0.104862	3.465736
217.679523	3568.929606	1.621531	-0.104943	3.470370
218.089492	3579.970988	1.626536	-0.105022	3.475020
218.529465	3590.969851	1.631540	-0.105108	3.479649
218.912240	3602.012104	1.636545	-0.105182	3.484283
219.553342	3612.999988	1.641550	-0.105305	3.488918
219.774480	3624.031174	1.646555	-0.105349	3.493517
220.237443	3635.024366	1.651559	-0.105439	3.498121
220.371056	3646.068794	1.656564	-0.105467	3.502704
220.866069	3657.085254	1.661569	-0.105562	3.507309
221.095662	3668.092198	1.666573	-0.105608	3.511875
221.327375	3679.107799	1.671578	-0.105654	3.516438
221.617225	3690.118450	1.676583	-0.105711	3.521000
222.019302	3701.150673	1.681588	-0.105790	3.525577
222.301927	3712.159708	1.686592	-0.105845	3.530126
222.515487	3723.180426	1.691597	-0.105888	3.534665
222.782325	3734.214179	1.696602	-0.105941	3.539210
223.214586	3745.186647	1.701606	-0.106025	3.543742
223.476303	3756.239161	1.706611	-0.106077	3.548283
223.900776	3767.203500	1.711616	-0.106159	3.552799
224.313420	3778.266674	1.716621	-0.106239	3.557348
224.607254	3789.252439	1.721625	-0.106297	3.561848
224.908547	3800.298834	1.726630	-0.106356	3.566366
225.132630	3811.304618	1.731635	-0.106401	3.570855
225.483734	3822.311452	1.736640	-0.106470	3.575351
225.777898	3833.322901	1.741644	-0.106528	3.579838
226.102228	3844.367477	1.746649	-0.106591	3.584335
226.370108	3855.359923	1.751654	-0.106644	3.588800
226.856858	3866.372602	1.756658	-0.106738	3.593291
227.284926	3877.410387	1.761663	-0.106821	3.597780
227.637113	3888.384515	1.766668	-0.106890	3.602229
228.012288	3899.432585	1.771673	-0.106963	3.606705
228.343739	3910.439272	1.776677	-0.107028	3.611154
228.546326	3921.461839	1.781682	-0.107069	3.615591
228.895788	3932.452408	1.786687	-0.107137	3.620024
229.383282	3943.492375	1.791692	-0.107231	3.624487
229.743995	3954.506909	1.796696	-0.107302	3.628920
230.276571	3965.505787	1.801701	-0.107404	3.633359
230.340574	3976.581853	1.806706	-0.107419	3.637775
230.775786	3987.524680	1.811710	-0.107504	3.642171
230.985451	3998.581839	1.816715	-0.107546	3.646584
231.266440	4009.569348	1.821720	-0.107601	3.650971
231.595593	4020.583769	1.826725	-0.107666	3.655368
232.044764	4031.626232	1.831729	-0.107753	3.659784
232.086337	4042.638450	1.836734	-0.107763	3.664140
232.496406	4053.643080	1.841739	-0.107843	3.668525
232.657669	4064.696617	1.846744	-0.107876	3.672900
233.052752	4075.670220	1.851748	-0.107953	3.677261
233.395365	4086.689876	1.856753	-0.108020	3.681630
233.915159	4097.721543	1.861758	-0.108120	3.686017
234.200158	4108.783005	1.866762	-0.108176	3.690385
234.600474	4119.770616	1.871767	-0.108254	3.694732
234.830210	4130.787645	1.876772	-0.108300	3.699067
235.421493	4141.822001	1.881777	-0.108414	3.703441
235.663174	4152.848827	1.886781	-0.108462	3.707771
236.156761	4163.842328	1.891786	-0.108557	3.712109
236.322615	4174.883682	1.896791	-0.108591	3.716427
236.627127	4185.855042	1.901795	-0.108651	3.720726
237.028613	4196.902084	1.906800	-0.108729	3.725060
237.227761	4207.891088	1.911805	-0.108769	3.729346
237.514596	4218.940545	1.916810	-0.108825	3.733659
237.822408	4229.932335	1.921814	-0.108886	3.737947
238.281684	4240.961307	1.926819	-0.108975	3.742259
238.510259	4251.991127	1.931824	-0.109020	3.746543
238.452391	4262.985382	1.936829	-0.109012	3.750781
238.905968	4273.998743	1.941833	-0.109100	3.755072
239.184660	4285.032255	1.946838	-0.109155	3.759348
239.701017	4296.028757	1.951843	-0.109255	3.763628
240.046745	4307.051437	1.956847	-0.109322	3.767897
240.240374	4318.085582	1.961852	-0.109361	3.772150
240.591533	4329.090022	1.966857	-0.109430	3.776403
