Wed Nov 23 17:50:12 2022

Number of Points = 2200
Depth (nm)	Load (µN)	Time (s)	Depth (V)	Load (V)
-7.502685	1.003783	0.000000	-0.004645	1.070180
0.000000	6.400276	0.005005	-0.006054	1.081319
7.982662	15.448452	0.010009	-0.007554	1.097471
14.731019	26.480850	0.015014	-0.008823	1.115395
19.049637	38.115640	0.020019	-0.009636	1.132653
21.672796	49.718133	0.025024	-0.010131	1.148811
23.506908	61.083291	0.030028	-0.010478	1.164079
24.895267	72.364279	0.035033	-0.010742	1.178840
26.056915	83.525363	0.040038	-0.010962	1.193167
27.008022	94.725551	0.045043	-0.011144	1.207278
27.781000	105.861250	0.050047	-0.011291	1.221069
28.381284	117.009286	0.055052	-0.011407	1.234645
29.167641	128.074781	0.060057	-0.011557	1.248056
29.706196	139.207264	0.065061	-0.011661	1.261297
30.348550	150.295836	0.070066	-0.011784	1.274392
30.862711	161.405338	0.075071	-0.011883	1.287325
31.447761	172.508146	0.080076	-0.011996	1.300150
31.869361	183.630499	0.085080	-0.012078	1.312805
32.298168	194.674012	0.090085	-0.012161	1.325255
32.738545	205.751278	0.095090	-0.012246	1.337630
33.252346	216.813304	0.100094	-0.012345	1.349904
33.595890	227.919222	0.105099	-0.012413	1.362047
33.994413	238.985873	0.110104	-0.012490	1.374062
34.366416	250.073474	0.115109	-0.012563	1.385985
34.990906	261.082150	0.120113	-0.012683	1.397819
35.414488	272.184358	0.125118	-0.012765	1.409575
35.913123	283.253469	0.130123	-0.012861	1.421228
36.330163	294.323981	0.135128	-0.012942	1.432757
36.774791	305.381021	0.140132	-0.013028	1.444189
37.256822	316.448585	0.145137	-0.013121	1.455556
37.689208	327.518747	0.150142	-0.013205	1.466819
46.172714	336.645211	0.155146	-0.014799	1.478944
52.369575	348.867671	0.160151	-0.015965	1.493197
53.338261	360.542113	0.165156	-0.016150	1.504950
54.189739	371.673467	0.170161	-0.016312	1.516046
54.969944	382.786729	0.175165	-0.016462	1.527019
55.943302	393.792135	0.180170	-0.016647	1.537876
56.969990	404.829430	0.185175	-0.016842	1.548705
57.946479	415.899868	0.190180	-0.017028	1.559473
58.952961	426.956141	0.195184	-0.017220	1.570163
59.899631	438.017386	0.200189	-0.017400	1.580765
60.535277	449.120983	0.205194	-0.017522	1.591232
61.661071	460.081009	0.210198	-0.017736	1.601659
62.562888	471.182184	0.215203	-0.017908	1.612074
63.550100	482.238311	0.220208	-0.018096	1.622409
64.410216	493.301469	0.225213	-0.018260	1.632643
65.333768	504.283130	0.230217	-0.018436	1.642761
66.154694	515.398972	0.235222	-0.018593	1.652902
66.989626	526.431508	0.240227	-0.018753	1.662913
67.979617	537.445309	0.245232	-0.018941	1.672894
68.901073	548.513267	0.250236	-0.019117	1.682843
69.585168	559.595216	0.255241	-0.019248	1.692671
70.346950	570.633111	0.260246	-0.019393	1.702428
71.152771	581.670879	0.265250	-0.019547	1.712143
71.829155	592.740008	0.270255	-0.019677	1.721790
72.795619	603.709036	0.275260	-0.019861	1.731385
73.681795	614.778897	0.280265	-0.020030	1.740987
74.485324	625.829046	0.285269	-0.020184	1.750496
75.451317	636.850422	0.290274	-0.020368	1.759976
76.476658	647.893615	0.295279	-0.020563	1.769440
77.517948	658.946704	0.300283	-0.020761	1.778867
78.270027	669.984266	0.305288	-0.020905	1.788147
78.958021	681.066595	0.310293	-0.021037	1.797397
79.878236	692.070470	0.315298	-0.021212	1.806602
80.634429	703.132346	0.320302	-0.021357	1.815761
81.476405	714.150902	0.325307	-0.021517	1.824862
82.152283	725.214833	0.330312	-0.021647	1.833907
82.823750	736.261924	0.335317	-0.021776	1.842894
83.507566	747.290161	0.340321	-0.021907	1.851824
84.201011	758.339558	0.345326	-0.022039	1.860731
84.879731	769.357589	0.350331	-0.022170	1.869567
85.670003	780.387665	0.355335	-0.022321	1.878400
86.313933	791.449405	0.360340	-0.022444	1.887177
87.226465	802.434119	0.365345	-0.022618	1.895925
88.298971	813.448536	0.370350	-0.022822	1.904699
88.842428	824.564612	0.375354	-0.022927	1.913369
89.646811	835.578701	0.380359	-0.023080	1.921991
90.270918	846.611226	0.385364	-0.023200	1.930540
90.850102	857.682729	0.390369	-0.023312	1.939070
91.424213	868.678307	0.395373	-0.023422	1.947503
92.209219	879.709103	0.400378	-0.023572	1.955981
92.926469	890.735989	0.405383	-0.023709	1.964401
93.658849	901.782523	0.410387	-0.023850	1.972804
94.255598	912.831126	0.415392	-0.023964	1.981137
94.966450	923.840247	0.420397	-0.024100	1.989435
95.672321	934.870846	0.425402	-0.024236	1.997713
96.289471	945.914812	0.430406	-0.024354	2.005944
97.379405	956.901731	0.435411	-0.024561	2.014218
97.864274	968.010616	0.440416	-0.024655	2.022395
98.416407	979.023713	0.445421	-0.024761	2.030487
99.029923	990.054077	0.450425	-0.024879	2.038574
99.726419	1001.056955	0.455430	-0.025013	2.046630
100.413699	1012.099841	0.460435	-0.025144	2.054679
101.000159	1023.153693	0.465439	-0.025257	2.062681
101.644167	1034.176530	0.470444	-0.025381	2.070643
102.341514	1045.204448	0.475449	-0.025514	2.078591
102.827499	1056.265493	0.480454	-0.025608	2.086481
103.545264	1067.265763	0.485458	-0.025746	2.094353
104.103745	1078.314855	0.490463	-0.025853	2.102193
104.709397	1089.315264	0.495468	-0.025970	2.109980
105.427763	1100.353694	0.500472	-0.026107	2.117791
106.159044	1111.366137	0.505477	-0.026247	2.125558
106.945335	1122.388814	0.510482	-0.026397	2.133317
107.820903	1133.418918	0.515487	-0.026564	2.141072
108.461048	1144.473015	0.520491	-0.026687	2.148762
108.942268	1155.520036	0.525496	-0.026780	2.156382
109.453542	1166.555535	0.530501	-0.026879	2.163975
110.087053	1177.544231	0.535506	-0.027001	2.171537
110.658853	1188.606241	0.540510	-0.027111	2.179108
111.157041	1199.619932	0.545515	-0.027207	2.186603
111.956620	1210.630600	0.550520	-0.027360	2.194139
112.641177	1221.658228	0.555524	-0.027491	2.201634
113.413835	1232.659164	0.560529	-0.027638	2.209105
114.414554	1243.689631	0.565534	-0.027829	2.216621
114.887504	1254.757974	0.570539	-0.027920	2.224019
115.710439	1265.760297	0.575543	-0.028078	2.231426
116.423187	1276.790034	0.580548	-0.028214	2.238802
116.983166	1287.836928	0.585553	-0.028322	2.246132
117.414729	1298.895354	0.590558	-0.028406	2.253417
117.968748	1309.907361	0.595562	-0.028512	2.260675
118.334295	1320.913449	0.600567	-0.028584	2.267865
118.976418	1331.945476	0.605572	-0.028707	2.275108
119.552393	1342.967143	0.610576	-0.028818	2.282307
120.116147	1353.980034	0.615581	-0.028926	2.289475
120.707837	1365.000935	0.620586	-0.029040	2.296632
121.251097	1376.059552	0.625591	-0.029144	2.303780
121.808262	1387.061984	0.630595	-0.029252	2.310872
122.333247	1398.090041	0.635600	-0.029353	2.317953
122.892787	1409.124084	0.640605	-0.029461	2.325022
123.680196	1420.127224	0.645610	-0.029611	2.332098
124.067537	1431.185590	0.650614	-0.029687	2.339104
124.691388	1442.175871	0.655619	-0.029806	2.346096
125.257833	1453.218428	0.660624	-0.029915	2.353087
125.816573	1464.228516	0.665628	-0.030023	2.360035
126.539437	1475.255868	0.670633	-0.030161	2.367007
127.052273	1486.300560	0.675638	-0.030260	2.373926
127.534726	1497.309025	0.680643	-0.030354	2.380796
128.229784	1508.318476	0.685647	-0.030487	2.387690
128.800007	1519.374068	0.690652	-0.030596	2.394567
129.295054	1530.394273	0.695657	-0.030692	2.401388
129.812000	1541.406735	0.700661	-0.030792	2.408189
130.424375	1552.444535	0.705666	-0.030909	2.415004
130.856299	1563.466121	0.710671	-0.030993	2.421755
131.287756	1574.476246	0.715676	-0.031077	2.428480
131.920670	1585.503559	0.720680	-0.031198	2.435236
132.398313	1596.522810	0.725685	-0.031291	2.441938
133.039988	1607.569876	0.730690	-0.031414	2.448670
133.542374	1618.554104	0.735695	-0.031511	2.455318
134.026088	1629.602283	0.740699	-0.031604	2.461983
134.617190	1640.625817	0.745704	-0.031718	2.468636
135.074998	1651.643856	0.750709	-0.031807	2.475242
135.798691	1662.624272	0.755713	-0.031945	2.481859
136.232587	1673.727707	0.760718	-0.032029	2.488476
136.876952	1684.695725	0.765723	-0.032153	2.495035
137.203159	1695.775731	0.770728	-0.032217	2.501582
137.498364	1706.766507	0.775732	-0.032275	2.508053
138.073550	1717.764628	0.780737	-0.032386	2.514565
138.690389	1728.798520	0.785742	-0.032504	2.521089
139.167295	1739.844542	0.790747	-0.032596	2.527576
139.577998	1750.851475	0.795751	-0.032676	2.534012
139.939875	1761.880504	0.800756	-0.032747	2.540435
140.538933	1772.864156	0.805761	-0.032862	2.546859
141.415756	1783.908980	0.810765	-0.033029	2.553354
141.685370	1794.936578	0.815770	-0.033082	2.559710
141.957833	1806.012424	0.820775	-0.033136	2.566078
142.458807	1816.973214	0.825780	-0.033233	2.572407
143.015275	1828.050702	0.830784	-0.033340	2.578796
143.625049	1839.000489	0.835789	-0.033457	2.585107
144.244789	1850.042749	0.840794	-0.033576	2.591456
144.780288	1861.052556	0.845799	-0.033680	2.597756
145.097475	1872.111601	0.850803	-0.033742	2.604029
145.567602	1883.103130	0.855808	-0.033833	2.610277
145.853856	1894.139312	0.860813	-0.033889	2.616501
146.493829	1905.136022	0.865817	-0.034012	2.622752
146.967074	1916.178198	0.870822	-0.034104	2.628983
147.460468	1927.189858	0.875827	-0.034199	2.635186
147.710370	1938.242467	0.880832	-0.034248	2.641354
148.155089	1949.240623	0.885836	-0.034335	2.647512
148.646834	1960.260520	0.890841	-0.034430	2.653675
149.285019	1971.243721	0.895846	-0.034552	2.659829
149.904644	1982.283580	0.900850	-0.034671	2.665997
150.432711	1993.330905	0.905855	-0.034773	2.672139
150.585625	2004.376695	0.910860	-0.034804	2.678201
151.073007	2015.344193	0.915865	-0.034899	2.684264
151.660561	2026.367524	0.920869	-0.035011	2.690360
152.400342	2037.371435	0.925874	-0.035153	2.696458
152.890571	2048.426851	0.930879	-0.035248	2.702528
153.057729	2059.435454	0.935884	-0.035282	2.708503
153.469126	2070.429356	0.940888	-0.035362	2.714499
154.166055	2081.439026	0.945893	-0.035495	2.720538
154.774136	2092.470539	0.950898	-0.035612	2.726561
155.486009	2103.493456	0.955902	-0.035748	2.732582
155.780205	2114.520567	0.960907	-0.035806	2.738523
156.439029	2125.515136	0.965912	-0.035933	2.744494
156.814343	2136.576287	0.970917	-0.036006	2.750440
157.158378	2147.581549	0.975921	-0.036073	2.756339
157.540804	2158.611800	0.980926	-0.036148	2.762244
157.798793	2169.633456	0.985931	-0.036199	2.768111
158.184264	2180.641407	0.990936	-0.036274	2.773980
158.619856	2191.650992	0.995940	-0.036358	2.779846
159.467850	2202.645169	1.000945	-0.036520	2.785758
160.070243	2213.691892	1.005950	-0.036636	2.791644
160.669524	2224.703883	1.010954	-0.036751	2.797500
161.051450	2235.728755	1.015959	-0.036825	2.803315
161.499825	2246.773770	1.020964	-0.036912	2.809139
161.893238	2257.781720	1.025969	-0.036989	2.814922
162.288997	2268.804833	1.030973	-0.037066	2.820702
162.757484	2279.807996	1.035978	-0.037156	2.826471
163.326014	2290.846240	1.040983	-0.037266	2.832262
163.445910	2301.854158	1.045988	-0.037291	2.837955
163.785786	2312.898449	1.050992	-0.037358	2.843689
164.157542	2323.888035	1.055997	-0.037430	2.849389
164.709322	2334.892801	1.061002	-0.037536	2.855114
165.363276	2345.913929	1.066006	-0.037662	2.860851
165.834247	2356.955441	1.071011	-0.037753	2.866558
166.250559	2367.977399	1.076016	-0.037834	2.872236
166.674193	2378.976368	1.081021	-0.037916	2.877891
167.298598	2389.989510	1.086025	-0.038036	2.883574
168.014058	2401.023153	1.091030	-0.038173	2.889270
168.192997	2412.087764	1.096035	-0.038209	2.894887
168.612366	2423.058401	1.101039	-0.038291	2.900483
168.876856	2434.098041	1.106044	-0.038343	2.906078
169.324685	2445.113261	1.111049	-0.038430	2.911679
169.816330	2456.101318	1.116054	-0.038525	2.917262
170.296128	2467.152087	1.121058	-0.038617	2.922864
170.626186	2478.160054	1.126063	-0.038682	2.928411
171.079627	2489.177462	1.131068	-0.038770	2.933971
171.406671	2500.194391	1.136073	-0.038834	2.939500
172.006812	2511.194230	1.141077	-0.038949	2.945052
172.636702	2522.227939	1.146082	-0.039070	2.950615
172.895604	2533.266718	1.151087	-0.039122	2.956113
173.239760	2544.288516	1.156091	-0.039189	2.961606
173.648336	2555.281886	1.161096	-0.039268	2.967085
174.532661	2566.266659	1.166101	-0.039437	2.972619
174.988596	2577.325205	1.171106	-0.039525	2.978115
175.401465	2588.335428	1.176110	-0.039605	2.983572
176.023145	2599.364696	1.181115	-0.039725	2.989058
176.487481	2610.351565	1.186120	-0.039815	2.994490
177.107267	2621.408349	1.191125	-0.039934	2.999969
177.567284	2632.407494	1.196129	-0.040023	3.005387
178.098269	2643.439168	1.201134	-0.040125	3.010821
178.576723	2654.444582	1.206139	-0.040218	3.016225
178.808089	2665.486804	1.211143	-0.040264	3.021600
179.078700	2676.488677	1.216148	-0.040317	3.026953
179.494549	2687.525885	1.221153	-0.040398	3.032333
180.034406	2698.494171	1.226158	-0.040502	3.037689
180.626903	2709.544112	1.231162	-0.040616	3.043082
180.827090	2720.592477	1.236167	-0.040656	3.048409
181.184004	2731.599997	1.241172	-0.040726	3.053729
181.776264	2742.563611	1.246177	-0.040840	3.059052
182.127183	2753.621997	1.251181	-0.040908	3.064376
182.715719	2764.630086	1.256186	-0.041021	3.069701
183.039143	2775.661658	1.261191	-0.041085	3.074990
183.505942	2786.662834	1.266195	-0.041175	3.080276
183.907491	2797.701420	1.271200	-0.041253	3.085561
184.388631	2808.690890	1.276205	-0.041346	3.090825
184.883096	2819.718182	1.281210	-0.041442	3.096100
185.356877	2830.738436	1.286214	-0.041533	3.101359
185.789905	2841.750745	1.291219	-0.041617	3.106600
186.054721	2852.769822	1.296224	-0.041670	3.111812
186.447928	2863.795845	1.301228	-0.041746	3.117036
186.996104	2874.793868	1.306233	-0.041852	3.122260
187.488883	2885.837875	1.311238	-0.041947	3.127488
187.953545	2896.843508	1.316243	-0.042037	3.132686
188.458110	2907.870971	1.321247	-0.042134	3.137891
188.643889	2918.884352	1.326252	-0.042172	3.143037
189.088464	2929.902823	1.331257	-0.042258	3.148212
189.466198	2940.903483	1.336262	-0.042332	3.153361
189.863577	2951.949875	1.341266	-0.042409	3.158525
190.358022	2962.923525	1.346271	-0.042505	3.163660
190.710533	2973.987405	1.351276	-0.042573	3.168810
191.097462	2984.974116	1.356280	-0.042649	3.173920
191.443465	2996.024838	1.361285	-0.042716	3.179046
192.021141	3006.988273	1.366290	-0.042828	3.184154
192.537501	3018.041603	1.371295	-0.042927	3.189287
192.990993	3029.040674	1.376299	-0.043015	3.194378
193.398149	3040.085567	1.381304	-0.043094	3.199476
193.899759	3051.086882	1.386309	-0.043191	3.204558
194.345548	3062.111352	1.391314	-0.043277	3.209636
194.770846	3073.100543	1.396318	-0.043360	3.214686
195.185265	3084.157417	1.401323	-0.043440	3.219758
195.432369	3095.172837	1.406328	-0.043489	3.224781
195.817634	3106.179685	1.411332	-0.043564	3.229810
196.327854	3117.177105	1.416337	-0.043663	3.234843
196.652081	3128.220728	1.421342	-0.043726	3.239865
197.232657	3139.212327	1.426347	-0.043838	3.244889
197.767695	3150.256172	1.431351	-0.043941	3.249923
198.063624	3161.250511	1.436356	-0.044000	3.254896
198.225390	3172.296913	1.441361	-0.044033	3.259867
198.545827	3183.276529	1.446366	-0.044095	3.264821
199.088424	3194.325717	1.451370	-0.044200	3.269827
199.813926	3205.284815	1.456375	-0.044339	3.274808
200.366565	3216.367478	1.461380	-0.044445	3.279814
200.501101	3227.362702	1.466384	-0.044473	3.284721
200.765201	3238.402340	1.471389	-0.044526	3.289657
201.206653	3249.384412	1.476394	-0.044611	3.294582
201.697918	3260.403783	1.481399	-0.044706	3.299522
202.276025	3271.414801	1.486403	-0.044817	3.304462
202.545698	3282.486469	1.491408	-0.044871	3.309382
202.654799	3293.450247	1.496413	-0.044894	3.314228
203.053302	3304.491670	1.501417	-0.044971	3.319137
203.787277	3315.452840	1.506422	-0.045112	3.324045
204.271558	3326.544200	1.511427	-0.045205	3.328971
204.554929	3337.519480	1.516432	-0.045261	3.333815
204.819054	3348.559992	1.521436	-0.045313	3.338677
205.016159	3359.559924	1.526441	-0.045353	3.343507
205.214252	3370.600031	1.531446	-0.045393	3.348347
205.718642	3381.582410	1.536451	-0.045490	3.353192
205.969204	3392.637357	1.541455	-0.045540	3.358031
206.365688	3403.612893	1.546460	-0.045617	3.362846
206.748148	3414.676917	1.551465	-0.045692	3.367691
207.216155	3425.630134	1.556469	-0.045782	3.372491
207.774628	3436.684653	1.561474	-0.045890	3.377338
208.233551	3447.666202	1.566479	-0.045979	3.382136
208.640618	3458.739125	1.571484	-0.046058	3.386959
208.890875	3469.729007	1.576488	-0.046108	3.391721
209.183248	3480.758450	1.581493	-0.046165	3.396499
209.671430	3491.749954	1.586498	-0.046259	3.401276
210.029008	3502.795872	1.591503	-0.046329	3.406055
210.249082	3513.786373	1.596507	-0.046373	3.410786
210.507329	3524.828525	1.601512	-0.046424	3.415538
210.933691	3535.819232	1.606517	-0.046507	3.420281
211.157727	3546.860361	1.611521	-0.046552	3.425015
211.378863	3557.873757	1.616526	-0.046596	3.429730
211.616750	3568.899363	1.621531	-0.046644	3.434446
212.325660	3579.862610	1.626536	-0.046779	3.439184
212.828281	3590.905891	1.631540	-0.046876	3.443925
213.468255	3601.901959	1.636545	-0.046999	3.448655
213.739261	3612.968690	1.641550	-0.047053	3.453366
214.142773	3623.957405	1.646555	-0.047131	3.458053
214.489943	3634.990956	1.651559	-0.047199	3.462746
214.825863	3645.979086	1.656564	-0.047265	3.467411
215.323149	3657.006473	1.661569	-0.047361	3.472106
215.615963	3668.016688	1.666573	-0.047418	3.476763
216.043305	3679.032727	1.671578	-0.047501	3.481432
216.353729	3690.075003	1.676583	-0.047562	3.486093
216.577303	3701.072388	1.681588	-0.047607	3.490718
217.030768	3712.092217	1.686592	-0.047695	3.495372
217.468398	3723.113499	1.691597	-0.047780	3.500019
217.724155	3734.112313	1.696602	-0.047830	3.504630
218.105580	3745.152532	1.701606	-0.047905	3.509267
218.354318	3756.151235	1.706611	-0.047954	3.513864
218.693427	3767.205577	1.711616	-0.048020	3.518489
218.915085	3778.176920	1.716621	-0.048065	3.523060
219.221987	3789.209105	1.721625	-0.048125	3.527660
219.503120	3800.225147	1.726630	-0.048181	3.532245
219.881233	3811.234118	1.731635	-0.048254	3.536831
220.344642	3822.224113	1.736640	-0.048344	3.541413
220.666086	3833.287508	1.741644	-0.048407	3.546003
221.188153	3844.251514	1.746649	-0.048508	3.550569
221.641756	3855.304822	1.751654	-0.048596	3.555157
222.050799	3866.298713	1.756658	-0.048675	3.559711
222.406613	3877.341932	1.761663	-0.048745	3.564273
222.643583	3888.353574	1.766668	-0.048792	3.568803
223.006749	3899.360934	1.771673	-0.048863	3.573339
223.378862	3910.385583	1.776677	-0.048935	3.577878
223.699056	3921.391671	1.781682	-0.048998	3.582397
224.025232	3932.396537	1.786687	-0.049062	3.586911
224.343645	3943.432236	1.791692	-0.049124	3.591430
224.671927	3954.437171	1.796696	-0.049189	3.595933
224.986867	3965.465142	1.801701	-0.049250	3.600438
225.336587	3976.476364	1.806706	-0.049319	3.604934
225.680500	3987.495467	1.811710	-0.049386	3.609427
225.934597	3998.491322	1.816715	-0.049436	3.613895
226.351596	4009.524469	1.821720	-0.049517	3.618390
226.825940	4020.521647	1.826725	-0.049609	3.622871
227.239204	4031.567646	1.831729	-0.049689	3.627359
227.578884	4042.543739	1.836734	-0.049756	3.631806
227.980091	4053.605314	1.841739	-0.049834	3.636289
228.226109	4064.576839	1.846744	-0.049883	3.640713
228.635460	4075.653145	1.851748	-0.049962	3.645191
228.741669	4086.620804	1.856753	-0.049985	3.649588
229.132316	4097.666310	1.861758	-0.050061	3.654040
229.376000	4108.732084	1.866762	-0.050110	3.658480
229.591786	4119.741209	1.871767	-0.050153	3.662889
229.875632	4130.730275	1.876772	-0.050209	3.667292
230.097254	4141.769505	1.881777	-0.050253	3.671702
230.443031	4152.754368	1.886781	-0.050321	3.676099
230.752176	4163.800852	1.891786	-0.050381	3.680511
230.944469	4174.822695	1.896791	-0.050420	3.684896
231.391321	4185.809730	1.901795	-0.050507	3.689288
231.631602	4196.833927	1.906800	-0.050555	3.693668
231.921742	4207.860846	1.911805	-0.050612	3.698049
232.245509	4218.878899	1.916810	-0.050675	3.702425
232.505984	4229.887796	1.921814	-0.050727	3.706786
232.820458	4240.875249	1.926819	-0.050789	3.711138
233.134151	4251.922212	1.931824	-0.050850	3.715509
233.366844	4262.924548	1.936829	-0.050897	3.719848
233.653839	4273.950638	1.941833	-0.050953	3.724197
234.048854	4284.937280	1.946838	-0.051030	3.728537
234.328524	4295.978755	1.951843	-0.051085	3.732881
234.807201	4307.002152	1.956847	-0.051178	3.737233
234.952661	4318.013093	1.961852	-0.051208	3.741542
235.449682	4329.005165	1.966857	-0.051304	3.745873
