Wed Nov 23 17:12:02 2022

Number of Points = 2200
Depth (nm)	Load (µN)	Time (s)	Depth (V)	Load (V)
-0.721976	1.541436	0.000000	0.049390	0.912443
0.000000	7.449075	0.005005	0.049253	0.922396
0.859339	16.297899	0.010009	0.049090	0.936976
1.807122	26.800216	0.015014	0.048909	0.953949
2.496282	37.836870	0.020019	0.048777	0.971291
3.287362	48.963658	0.025024	0.048626	0.988520
3.857649	60.167586	0.030028	0.048516	1.005447
4.587460	71.328894	0.035033	0.048376	1.022116
5.097087	82.519830	0.040038	0.048278	1.038443
5.655342	93.700093	0.045043	0.048170	1.054528
6.035208	104.858070	0.050047	0.048096	1.070248
6.641337	115.990135	0.055052	0.047980	1.085820
6.930274	127.180337	0.060057	0.047923	1.101091
7.533555	138.262992	0.065061	0.047807	1.116164
7.776713	149.451583	0.070066	0.047759	1.131001
8.099742	160.575481	0.075071	0.047695	1.145601
11.216439	170.792886	0.080076	0.047108	1.160169
17.826930	181.585841	0.085080	0.045865	1.176890
18.977347	193.518652	0.090085	0.045646	1.192303
20.079989	204.814784	0.095090	0.045436	1.206717
21.057687	215.973233	0.100094	0.045250	1.220738
22.110632	227.084639	0.105099	0.045050	1.234576
22.638465	238.289272	0.110104	0.044948	1.248143
23.584209	249.313145	0.115109	0.044768	1.261530
24.182948	260.449527	0.120113	0.044653	1.274760
25.094940	271.518468	0.125118	0.044479	1.287907
25.981326	282.625543	0.130123	0.044310	1.300954
26.446095	293.766752	0.135128	0.044220	1.313736
26.873784	304.874373	0.140132	0.044137	1.326343
27.351160	315.919033	0.145137	0.044044	1.338780
28.005068	326.974341	0.150142	0.043919	1.351185
28.377372	338.090275	0.155146	0.043846	1.363431
28.840081	349.157701	0.160151	0.043757	1.375552
29.361292	360.238234	0.165156	0.043656	1.387602
29.454854	371.354153	0.170161	0.043636	1.399423
30.087233	382.352835	0.175165	0.043515	1.411225
30.487092	393.451186	0.180170	0.043437	1.422946
30.900045	404.515697	0.185175	0.043357	1.434541
31.114092	415.641053	0.190180	0.043314	1.446031
31.328532	426.684667	0.195184	0.043271	1.457348
31.711114	437.715221	0.200189	0.043196	1.468625
32.331825	448.710493	0.205194	0.043077	1.479866
40.631148	458.422762	0.210198	0.041517	1.492489
41.673021	470.634920	0.215203	0.041319	1.504893
42.730874	481.809351	0.220208	0.041117	1.516190
44.050537	492.853157	0.225213	0.040867	1.527367
45.189616	503.940762	0.230217	0.040651	1.538442
46.329421	514.990635	0.235222	0.040434	1.549402
47.407686	526.063572	0.240227	0.040229	1.560285
48.138809	537.175826	0.245232	0.040089	1.571012
49.165425	548.184364	0.250236	0.039894	1.581668
50.134308	559.236152	0.255241	0.039709	1.592273
51.355478	570.222081	0.260246	0.039477	1.602829
52.375818	581.386205	0.265250	0.039283	1.613414
53.065235	592.453742	0.270255	0.039151	1.623733
54.043892	603.437943	0.275260	0.038965	1.634006
54.705827	614.557164	0.280265	0.038838	1.644233
55.847297	625.537065	0.285269	0.038621	1.654425
56.825944	636.588106	0.290274	0.038434	1.664565
57.535770	647.675177	0.295279	0.038298	1.674591
58.245820	658.749451	0.300283	0.038162	1.684546
58.962678	669.777770	0.305288	0.038025	1.694404
59.694914	680.795710	0.310293	0.037885	1.704201
61.080175	691.774736	0.315298	0.037622	1.714106
61.804840	702.915124	0.320302	0.037484	1.723893
62.472895	713.976915	0.325307	0.037356	1.733539
62.847348	725.040417	0.330312	0.037283	1.743046
63.696208	735.999165	0.335317	0.037121	1.752554
64.589985	747.080601	0.340321	0.036950	1.762125
65.608229	758.089749	0.345326	0.036756	1.771622
65.992206	769.215330	0.350331	0.036682	1.780978
66.900806	780.184975	0.355335	0.036508	1.790309
67.347708	791.291992	0.360340	0.036422	1.799571
68.573435	802.193430	0.365345	0.036189	1.808840
69.380099	813.311526	0.370350	0.036035	1.818118
70.139985	824.367003	0.375354	0.035890	1.827285
70.627717	835.443250	0.380359	0.035795	1.836346
71.355560	846.451210	0.385364	0.035656	1.845374
71.921296	857.488715	0.390369	0.035547	1.854337
72.823386	868.525412	0.395373	0.035375	1.863349
73.283107	879.561700	0.400378	0.035286	1.872195
74.271835	890.577876	0.405383	0.035098	1.881128
74.987852	901.622552	0.410387	0.034961	1.889967
75.641718	912.680958	0.415392	0.034835	1.898758
76.298887	923.688456	0.420397	0.034709	1.907469
77.097971	934.738593	0.425402	0.034557	1.916212
77.946102	945.737619	0.430406	0.034395	1.924888
78.779725	956.816107	0.435411	0.034236	1.933582
79.011806	967.897988	0.440416	0.034189	1.942081
79.713150	978.862291	0.445421	0.034055	1.950576
80.359733	989.913114	0.450425	0.033931	1.959086
81.374473	1000.917518	0.455430	0.033738	1.967619
81.725159	1012.015016	0.460435	0.033669	1.976012
82.688610	1022.967406	0.465439	0.033486	1.984420
83.168233	1034.091519	0.470444	0.033393	1.992795
83.765794	1045.106353	0.475449	0.033278	2.001085
84.240798	1056.155252	0.480454	0.033186	2.009334
84.973891	1067.154061	0.485458	0.033046	2.017577
85.332149	1078.226410	0.490463	0.032976	2.025746
86.395589	1089.166314	0.495468	0.032774	2.033962
86.682721	1100.295879	0.500472	0.032717	2.042089
87.771519	1111.217581	0.505477	0.032510	2.050232
88.126408	1122.371007	0.510482	0.032441	2.058328
88.743105	1133.334674	0.515487	0.032322	2.066320
89.434762	1144.380027	0.520491	0.032190	2.074358
89.897397	1155.424458	0.525496	0.032100	2.082309
90.548111	1166.447780	0.530501	0.031976	2.090259
91.387935	1177.427598	0.535506	0.031815	2.098194
91.594197	1188.541565	0.540510	0.031774	2.106041
92.403065	1199.516277	0.545515	0.031619	2.113906
92.719732	1210.594939	0.550520	0.031557	2.121696
93.304223	1221.585534	0.555524	0.031445	2.129460
93.993205	1232.608299	0.560529	0.031313	2.137242
94.494447	1243.661807	0.565534	0.031216	2.144973
95.226461	1254.651186	0.570539	0.031076	2.152686
95.516084	1265.754908	0.575543	0.031019	2.160347
96.080580	1276.707742	0.580548	0.030910	2.167941
96.874303	1287.772356	0.585553	0.030758	2.175636
97.379997	1298.762135	0.590558	0.030661	2.183188
98.084071	1309.824277	0.595562	0.030526	2.190808
98.445508	1320.851732	0.600567	0.030455	2.198300
99.149237	1331.870438	0.605572	0.030321	2.205838
99.573767	1342.909000	0.610576	0.030238	2.213300
100.127884	1353.935596	0.615581	0.030132	2.220758
100.484494	1364.986719	0.620586	0.030062	2.228164
100.777140	1376.005863	0.625591	0.030004	2.235509
101.070681	1387.036063	0.630595	0.029947	2.242837
101.814219	1398.029518	0.635600	0.029804	2.250217
102.254778	1409.097149	0.640605	0.029719	2.257554
102.699650	1420.087889	0.645610	0.029633	2.264818
103.184372	1431.100617	0.650614	0.029539	2.272082
103.658454	1442.158519	0.655619	0.029447	2.279349
104.216773	1453.143515	0.660624	0.029340	2.286564
104.460368	1464.246874	0.665628	0.029291	2.293765
105.181135	1475.169368	0.670633	0.029153	2.300929
105.946741	1486.224561	0.675638	0.029007	2.308165
106.266336	1497.290921	0.680643	0.028944	2.315291
106.709062	1508.302254	0.685647	0.028859	2.322386
107.190991	1519.313990	0.690652	0.028765	2.329467
107.995020	1530.330719	0.695657	0.028612	2.336598
108.238665	1541.395909	0.700661	0.028563	2.343620
108.810395	1552.383911	0.705666	0.028453	2.350640
109.158019	1563.437489	0.710671	0.028385	2.357635
109.666215	1574.451271	0.715676	0.028287	2.364616
110.006334	1585.478918	0.720680	0.028221	2.371551
110.532735	1596.498234	0.725685	0.028119	2.378499
110.948478	1607.517168	0.730690	0.028038	2.385404
111.670717	1618.496201	0.735695	0.027900	2.392326
112.039036	1629.588987	0.740699	0.027828	2.399226
112.563000	1640.592964	0.745704	0.027727	2.406083
112.989232	1651.622718	0.750709	0.027645	2.412917
113.464224	1662.631216	0.755713	0.027553	2.419727
114.083601	1673.633030	0.760718	0.027434	2.426544
114.626187	1684.689867	0.765723	0.027329	2.433359
114.926914	1695.721908	0.770728	0.027270	2.440092
115.383226	1706.741686	0.775732	0.027182	2.446830
115.705472	1717.769114	0.780737	0.027119	2.453527
116.144083	1728.776079	0.785742	0.027034	2.460217
116.725780	1739.775265	0.790747	0.026922	2.466911
117.034392	1750.870514	0.795751	0.026861	2.473592
117.423186	1761.823231	0.800756	0.026785	2.480185
117.964660	1772.876007	0.805761	0.026681	2.486849
118.337917	1783.909957	0.810765	0.026608	2.493452
118.973602	1794.886208	0.815770	0.026486	2.500053
119.289826	1805.955356	0.820775	0.026424	2.506630
119.831715	1816.969841	0.825780	0.026320	2.513201
120.168049	1827.969883	0.830784	0.026254	2.519708
120.639111	1839.001456	0.835789	0.026163	2.526241
121.082579	1850.051084	0.840794	0.026077	2.532763
121.550982	1861.028701	0.845799	0.025986	2.539230
122.037465	1872.056901	0.850803	0.025892	2.545714
122.339414	1883.138386	0.855808	0.025833	2.552177
122.538920	1894.131863	0.860813	0.025793	2.558554
122.857647	1905.146937	0.865817	0.025730	2.564950
123.292058	1916.164663	0.870822	0.025646	2.571353
123.800921	1927.235095	0.875827	0.025548	2.577783
124.152154	1938.203375	0.880832	0.025479	2.584110
124.829582	1949.205876	0.885836	0.025349	2.590501
124.922715	1960.262351	0.890841	0.025329	2.596799
125.724153	1971.242386	0.895846	0.025176	2.603168
126.061360	1982.300251	0.900850	0.025110	2.609481
126.656125	1993.266854	0.905855	0.024996	2.615774
126.846896	2004.377996	0.910860	0.024957	2.622060
127.120078	2015.371389	0.915865	0.024903	2.628280
127.353156	2026.348188	0.920869	0.024857	2.634468
130.801470	2037.021464	0.925874	0.024207	2.641045
133.657059	2048.197654	0.930879	0.023668	2.647779
135.164639	2059.362075	0.935884	0.023383	2.654250
135.296345	2070.463056	0.940888	0.023355	2.660428
135.655623	2081.462293	0.945893	0.023285	2.666575
136.260504	2092.465450	0.950898	0.023169	2.672753
136.759811	2103.478411	0.955902	0.023072	2.678903
137.173786	2114.507978	0.960907	0.022992	2.685033
137.754491	2125.529873	0.965912	0.022880	2.691174
138.110596	2136.559044	0.970917	0.022811	2.697266
138.623663	2147.576589	0.975921	0.022712	2.703365
139.036569	2158.588735	0.980926	0.022632	2.709430
139.701477	2169.602374	0.985931	0.022504	2.715525
140.162566	2180.636102	0.990936	0.022415	2.721582
140.409507	2191.676345	0.995940	0.022366	2.727593
140.772194	2202.682809	1.000945	0.022295	2.733592
141.366757	2213.664795	1.005950	0.022181	2.739604
141.989943	2224.705733	1.010954	0.022061	2.745639
142.239230	2235.770166	1.015959	0.022012	2.751610
142.343413	2246.786403	1.020964	0.021989	2.757518
142.644871	2257.776880	1.025969	0.021930	2.763433
143.141745	2268.801715	1.030973	0.021834	2.769385
143.499304	2279.812708	1.035978	0.021764	2.775295
143.954637	2290.834748	1.040983	0.021676	2.781213
144.446616	2301.854626	1.045988	0.021581	2.787124
144.617676	2312.911009	1.050992	0.021546	2.792989
144.880418	2323.896419	1.055997	0.021494	2.798819
145.441012	2334.900297	1.061002	0.021386	2.804695
146.052687	2345.926949	1.066006	0.021269	2.810579
146.469700	2356.959165	1.071011	0.021188	2.816422
146.806259	2367.985349	1.076016	0.021122	2.822236
146.888317	2379.012936	1.081021	0.021104	2.827998
147.491178	2390.000793	1.086025	0.020988	2.833812
147.964267	2401.022644	1.091030	0.020896	2.839610
148.361050	2412.067685	1.096035	0.020819	2.845396
148.735015	2423.067797	1.101039	0.020746	2.851143
149.063108	2434.097458	1.106044	0.020682	2.856887
149.322146	2445.121258	1.111049	0.020631	2.862605
149.701752	2456.121730	1.116054	0.020557	2.868318
150.178781	2467.143222	1.121058	0.020464	2.874047
150.552643	2478.191548	1.126063	0.020392	2.879761
150.930479	2489.163779	1.131068	0.020318	2.885425
151.340645	2500.232678	1.136073	0.020238	2.891133
151.955776	2511.201466	1.141077	0.020120	2.896810
152.511127	2522.228675	1.146082	0.020013	2.902497
153.039081	2533.233533	1.151087	0.019911	2.908156
153.448979	2544.298433	1.156091	0.019832	2.913817
153.486628	2555.320258	1.161096	0.019822	2.919387
153.894063	2566.311004	1.166101	0.019743	2.924988
154.126149	2577.369350	1.171106	0.019697	2.930585
154.455277	2588.352909	1.176110	0.019632	2.936149
154.825477	2599.379479	1.181115	0.019560	2.941730
155.240070	2610.393287	1.186120	0.019479	2.947300
155.585286	2621.395035	1.191125	0.019412	2.952844
155.928371	2632.450497	1.196129	0.019345	2.958403
156.235389	2643.443826	1.201134	0.019284	2.963916
156.840808	2654.487762	1.206139	0.019168	2.969488
156.775022	2665.512960	1.211143	0.019178	2.974939
157.280309	2676.485969	1.216148	0.019080	2.980441
157.585128	2687.520178	1.221153	0.019020	2.985932
158.351587	2698.519967	1.226158	0.018874	2.991465
158.793181	2709.546884	1.231162	0.018788	2.996952
159.296292	2720.587425	1.236167	0.018691	3.002446
159.454772	2731.582897	1.241172	0.018658	3.007856
159.998241	2742.610928	1.246177	0.018554	3.013329
160.398573	2753.625835	1.251181	0.018476	3.018764
160.934097	2764.636470	1.256186	0.018373	3.024207
161.103561	2775.690657	1.261191	0.018338	3.029608
161.382880	2786.693210	1.266195	0.018283	3.034991
161.584332	2797.718942	1.271200	0.018243	3.040363
162.123340	2808.709251	1.276205	0.018139	3.045758
162.402295	2819.755977	1.281210	0.018084	3.051133
162.713189	2830.761744	1.286214	0.018023	3.056483
162.742006	2841.787545	1.291219	0.018014	3.061793
163.166527	2852.784157	1.296224	0.017932	3.067136
163.661921	2863.787775	1.301228	0.017836	3.072484
164.116980	2874.830289	1.306233	0.017748	3.077834
164.020126	2885.880687	1.311238	0.017764	3.083101
164.631796	2896.857361	1.316243	0.017646	3.088424
165.005309	2907.864591	1.321247	0.017573	3.093719
165.705817	2918.871718	1.326252	0.017439	3.099050
166.358120	2929.902302	1.331257	0.017314	3.104377
166.740866	2940.936651	1.336262	0.017239	3.109658
167.110392	2951.936601	1.341266	0.017167	3.114912
167.697415	2962.982629	1.346271	0.017055	3.120209
167.930729	2973.967446	1.351276	0.017008	3.125419
168.422599	2985.010852	1.356280	0.016913	3.130684
169.202558	2995.985228	1.361285	0.016764	3.135947
169.934840	3007.012892	1.366290	0.016624	3.141219
170.183604	3018.065130	1.371295	0.016574	3.146428
170.469802	3029.085515	1.376299	0.016518	3.151618
170.817088	3040.070295	1.381304	0.016450	3.156791
171.303897	3051.111727	1.386309	0.016356	3.162001
171.757849	3062.141867	1.391314	0.016268	3.167192
172.296098	3073.126228	1.396318	0.016164	3.172366
172.514364	3084.176736	1.401323	0.016121	3.177517
172.909706	3095.170771	1.406328	0.016044	3.182659
173.213803	3106.210957	1.411332	0.015984	3.187801
173.502885	3117.221506	1.416337	0.015927	3.192919
173.930743	3128.231347	1.421342	0.015844	3.198047
174.230689	3139.254365	1.426347	0.015785	3.203155
174.622398	3150.288378	1.431351	0.015709	3.208273
174.948254	3161.283857	1.436356	0.015645	3.213356
175.320422	3172.286389	1.441361	0.015572	3.218440
175.781439	3183.311064	1.446366	0.015483	3.223538
175.905595	3194.336058	1.451370	0.015457	3.228583
176.560969	3205.340136	1.456375	0.015331	3.233681
176.706203	3216.389318	1.461380	0.015301	3.238724
177.157503	3227.375150	1.466384	0.015214	3.243771
177.415177	3238.408163	1.471389	0.015163	3.248806
177.727931	3249.413704	1.476394	0.015102	3.253828
178.183190	3260.432914	1.481399	0.015013	3.258866
178.488768	3271.468335	1.486403	0.014953	3.263885
178.700122	3282.466955	1.491408	0.014911	3.268867
179.087587	3293.480687	1.496413	0.014835	3.273871
179.381649	3304.510596	1.501417	0.014778	3.278862
179.660721	3315.532639	1.506422	0.014722	3.283841
180.086583	3326.542277	1.511427	0.014640	3.288825
180.401337	3337.539285	1.516432	0.014578	3.293781
181.117278	3348.542977	1.521436	0.014441	3.298784
181.323490	3359.616179	1.526441	0.014400	3.303746
181.695980	3370.605523	1.531446	0.014327	3.308683
182.150777	3381.600894	1.536451	0.014239	3.313627
182.412111	3392.633625	1.541455	0.014187	3.318555
182.735741	3403.681548	1.546460	0.014124	3.323490
183.036563	3414.655928	1.551465	0.014064	3.328383
183.364161	3425.696459	1.556469	0.014000	3.333300
183.530723	3436.723417	1.561474	0.013966	3.338185
184.014353	3447.716743	1.566479	0.013873	3.343087
184.464531	3458.729739	1.571484	0.013786	3.347986
184.768901	3469.754933	1.576488	0.013726	3.352865
185.135952	3480.773825	1.581493	0.013654	3.357742
185.316794	3491.794477	1.586498	0.013618	3.362589
185.668707	3502.804508	1.591503	0.013549	3.367446
186.150530	3513.812865	1.596507	0.013456	3.372311
186.353038	3524.831468	1.601512	0.013415	3.377139
186.829086	3535.842402	1.606517	0.013323	3.381991
187.285525	3546.868640	1.611521	0.013234	3.386839
187.616593	3557.890085	1.616526	0.013170	3.391663
188.085932	3568.873009	1.621531	0.013079	3.396480
188.553929	3579.927218	1.626536	0.012988	3.401321
188.751614	3590.955982	1.631540	0.012948	3.406112
189.007126	3601.953211	1.636545	0.012898	3.410889
189.232596	3612.966500	1.641550	0.012853	3.415662
189.568489	3623.985735	1.646555	0.012787	3.420445
189.929705	3634.988233	1.651559	0.012717	3.425217
190.385610	3646.020161	1.656564	0.012628	3.430005
190.792111	3657.019689	1.661569	0.012549	3.434768
191.054234	3668.070511	1.666573	0.012497	3.439528
191.469816	3679.054196	1.671578	0.012417	3.444271
191.981999	3690.110885	1.676583	0.012318	3.449051
192.146539	3701.103528	1.681588	0.012284	3.453755
192.533319	3712.110161	1.686592	0.012209	3.458485
192.879571	3723.105182	1.691597	0.012141	3.463198
193.266316	3734.142633	1.696602	0.012066	3.467928
193.640395	3745.154781	1.701606	0.011993	3.472639
193.817420	3756.206886	1.706611	0.011957	3.477338
194.145633	3767.179373	1.711616	0.011893	3.482014
194.480809	3778.214595	1.716621	0.011827	3.486711
194.933217	3789.207689	1.721625	0.011739	3.491397
195.434928	3800.245524	1.726630	0.011643	3.496102
195.779033	3811.232567	1.731635	0.011575	3.500761
196.231047	3822.302565	1.736640	0.011488	3.505460
196.512987	3833.268848	1.741644	0.011432	3.510090
196.967363	3844.336412	1.746649	0.011344	3.514777
197.231252	3855.299970	1.751654	0.011292	3.519391
197.619232	3866.357360	1.756658	0.011216	3.524053
197.845364	3877.391347	1.761663	0.011171	3.528680
198.118936	3888.360393	1.766668	0.011117	3.533280
198.379218	3899.397160	1.771673	0.011066	3.537900
198.655540	3910.409658	1.776677	0.011011	3.542506
199.066075	3921.410959	1.781682	0.010931	3.547116
199.346343	3932.442572	1.786687	0.010876	3.551719
199.667202	3943.442305	1.791692	0.010813	3.556306
199.979319	3954.457384	1.796696	0.010752	3.560893
200.415826	3965.477648	1.801701	0.010667	3.565490
200.856243	3976.490262	1.806706	0.010582	3.570078
201.118086	3987.521463	1.811710	0.010530	3.574648
201.618148	3998.528851	1.816715	0.010433	3.579228
201.770367	4009.555142	1.821720	0.010402	3.583772
202.291487	4020.571315	1.826725	0.010301	3.588347
202.366228	4031.582752	1.831729	0.010285	3.592865
202.839797	4042.581603	1.836734	0.010193	3.597416
203.094788	4053.618821	1.841739	0.010143	3.601952
203.399868	4064.642264	1.846744	0.010083	3.606483
203.695086	4075.623444	1.851748	0.010024	3.610989
204.091545	4086.663027	1.856753	0.009947	3.615525
204.244264	4097.684859	1.861758	0.009916	3.620021
204.908184	4108.738538	1.866762	0.009789	3.624580
205.036516	4119.760964	1.871767	0.009762	3.629063
205.235249	4130.769201	1.876772	0.009722	3.633542
205.644746	4141.788643	1.881777	0.009642	3.638042
206.150993	4152.801901	1.886781	0.009545	3.642545
206.491211	4163.804228	1.891786	0.009478	3.647019
206.800442	4174.819255	1.896791	0.009417	3.651490
207.169755	4185.837639	1.901795	0.009345	3.655963
207.587082	4196.846312	1.906800	0.009264	3.660432
207.983849	4207.883564	1.911805	0.009187	3.664905
208.354729	4218.879910	1.916810	0.009115	3.669353
208.631945	4229.902057	1.921814	0.009060	3.673796
209.013284	4240.928431	1.926819	0.008986	3.678246
209.371072	4251.955904	1.931824	0.008916	3.682688
209.721702	4262.976964	1.936829	0.008847	3.687122
210.053569	4273.946743	1.941833	0.008782	3.691528
210.497718	4284.975139	1.946838	0.008696	3.695964
210.913853	4296.000132	1.951843	0.008615	3.700390
211.140136	4307.045716	1.956847	0.008570	3.704799
211.313053	4318.014586	1.961852	0.008535	3.709167
211.864609	4329.048643	1.966857	0.008429	3.713595
212.072116	4340.053922	1.971862	0.008387	3.717971
212.324411	4351.095502	1.976866	0.008337	3.722360
212.587055	4362.085921	1.981871	0.008285	3.726725
212.975439	4373.105214	1.986876	0.008209	3.731109
213.218991	4384.128484	1.991881	0.008161	3.735474
213.541418	4395.139708	1.996885	0.008098	3.739838
213.948713	4406.155678	2.001890	0.008019	3.744207
213.971017	4417.189440	2.006895	0.008012	3.748538
