Wed Nov 23 17:31:11 2022

Number of Points = 2200
Depth (nm)	Load (µN)	Time (s)	Depth (V)	Load (V)
-1.000068	1.851421	0.000000	0.053654	0.899153
0.000000	7.385397	0.005005	0.053464	0.908817
0.885582	16.145951	0.010009	0.053296	0.923494
2.108188	26.546290	0.015014	0.053064	0.940720
2.923184	37.594921	0.020019	0.052909	0.958403
3.988755	48.713098	0.025024	0.052706	0.976011
4.633753	59.980327	0.030028	0.052582	0.993295
5.181892	71.183119	0.035033	0.052476	1.010137
5.832895	82.332629	0.040038	0.052351	1.026679
8.247197	93.002957	0.045043	0.051896	1.043204
11.019683	104.151663	0.050047	0.051373	1.060322
12.568522	115.522102	0.055052	0.051079	1.076849
13.740462	126.767478	0.060057	0.050857	1.092768
15.098582	137.942595	0.065061	0.050599	1.108455
15.726179	149.196912	0.070066	0.050479	1.123672
17.034390	160.250205	0.075071	0.050230	1.138750
17.952894	171.407927	0.080076	0.050055	1.153580
19.151948	182.496552	0.085080	0.049827	1.168264
19.952072	193.664844	0.090085	0.049675	1.182681
21.027141	204.756079	0.095090	0.049470	1.196954
21.913240	215.884010	0.100094	0.049301	1.211017
23.026353	226.967601	0.105099	0.049089	1.224966
23.919266	238.073698	0.110104	0.048919	1.238687
25.006430	249.179532	0.115109	0.048712	1.252341
26.067851	260.251024	0.120113	0.048511	1.265796
27.343686	271.291629	0.125118	0.048268	1.279163
28.196549	282.487065	0.130123	0.048106	1.292392
28.933326	293.669093	0.135128	0.047965	1.305423
29.757139	304.675377	0.140132	0.047807	1.318164
30.704509	315.747630	0.145137	0.047627	1.330905
31.919860	326.739685	0.150142	0.047396	1.343543
32.699396	337.926869	0.155146	0.047247	1.356103
33.360003	349.008299	0.160151	0.047120	1.368387
34.560356	359.998629	0.165156	0.046892	1.380673
35.742652	371.079359	0.170161	0.046668	1.392938
36.808957	382.153351	0.175165	0.046465	1.405045
37.674213	393.275956	0.180170	0.046300	1.417023
38.567711	404.332584	0.185175	0.046129	1.428841
39.664898	415.349045	0.190180	0.045921	1.440597
40.791090	426.451191	0.195184	0.045707	1.452355
41.800159	437.517354	0.200189	0.045515	1.463938
43.143955	448.515008	0.205194	0.045260	1.475482
44.114355	459.648713	0.210198	0.045075	1.486938
45.158124	470.720195	0.215203	0.044876	1.498270
45.927304	481.775697	0.220208	0.044729	1.509404
47.010858	492.840216	0.225213	0.044523	1.520574
48.068385	503.887506	0.230217	0.044322	1.531637
48.913946	514.982134	0.235222	0.044161	1.542592
49.512807	526.065529	0.240227	0.044046	1.553375
50.411719	537.077239	0.245232	0.043874	1.564117
51.159478	548.152104	0.250236	0.043731	1.574794
52.106366	559.195523	0.255241	0.043551	1.585436
52.797896	570.248838	0.260246	0.043418	1.595931
53.660929	581.301813	0.265250	0.043253	1.606412
54.593027	592.343700	0.270255	0.043076	1.616838
55.195454	603.443411	0.275260	0.042960	1.627142
56.158895	614.433174	0.280265	0.042777	1.637398
57.234433	625.464405	0.285269	0.042572	1.647663
57.700499	636.607993	0.290274	0.042482	1.657770
58.514641	647.614367	0.295279	0.042326	1.667804
59.334983	658.631856	0.300283	0.042170	1.677790
60.184525	669.684141	0.305288	0.042008	1.687755
60.837098	680.786212	0.310293	0.041882	1.697644
61.423425	691.833057	0.315298	0.041770	1.707407
62.009214	702.833904	0.320302	0.041657	1.717075
63.024606	713.856763	0.325307	0.041464	1.726837
63.633518	724.948257	0.330312	0.041347	1.736480
64.521755	735.952820	0.335317	0.041177	1.746079
64.998191	747.059168	0.340321	0.041085	1.755589
65.566904	758.076983	0.345326	0.040976	1.765000
66.273212	769.120550	0.350331	0.040840	1.774423
67.334150	780.046173	0.355335	0.040639	1.783802
68.451808	791.132983	0.360340	0.040426	1.793280
69.376627	802.193885	0.365345	0.040250	1.802631
69.928198	813.278485	0.370350	0.040144	1.811846
70.696305	824.320163	0.375354	0.039997	1.821040
71.141891	835.360525	0.380359	0.039910	1.830096
71.904160	846.373061	0.385364	0.039765	1.839174
72.643988	857.420001	0.390369	0.039623	1.848228
73.358813	868.462123	0.395373	0.039486	1.857227
73.945261	879.515941	0.400378	0.039373	1.866156
74.828739	890.502034	0.405383	0.039205	1.875071
75.415061	901.571955	0.410387	0.039092	1.883927
76.103329	912.624214	0.415392	0.038960	1.892756
76.718143	923.646059	0.420397	0.038842	1.901499
77.394411	934.680500	0.425402	0.038713	1.910229
78.130040	945.707780	0.430406	0.038572	1.918929
78.847763	956.739983	0.435411	0.038434	1.927589
79.532028	967.811666	0.440416	0.038303	1.936230
80.172583	978.801623	0.445421	0.038180	1.944760
80.969972	989.826166	0.450425	0.038028	1.953319
81.530848	1000.921858	0.455430	0.037920	1.961832
81.848617	1011.953720	0.460435	0.037858	1.970198
82.678378	1022.944183	0.465439	0.037699	1.978629
83.130858	1034.020846	0.470444	0.037612	1.986991
83.845467	1045.019713	0.475449	0.037475	1.995328
84.327956	1056.109623	0.480454	0.037382	2.003637
84.964940	1067.086160	0.485458	0.037259	2.011868
85.385394	1078.180258	0.490463	0.037178	2.020097
85.966160	1089.165833	0.495468	0.037066	2.028253
86.736703	1100.173847	0.500472	0.036919	2.036439
87.420262	1111.219512	0.505477	0.036788	2.044599
87.910342	1122.279762	0.510482	0.036693	2.052688
88.559034	1133.298905	0.515487	0.036569	2.060755
89.038031	1144.315798	0.520491	0.036476	2.068747
89.635343	1155.352255	0.525496	0.036361	2.076750
90.542403	1166.346453	0.530501	0.036188	2.084768
91.122553	1177.434388	0.535506	0.036077	2.092742
91.680602	1188.446191	0.540510	0.035969	2.100627
92.187396	1199.478667	0.545515	0.035871	2.108484
92.683000	1210.510298	0.550520	0.035776	2.116309
93.307109	1221.531210	0.555524	0.035656	2.124127
93.684968	1232.594432	0.560529	0.035582	2.131888
94.178537	1243.582199	0.565534	0.035487	2.139596
94.733854	1254.624986	0.570539	0.035380	2.147328
95.515195	1265.645852	0.575543	0.035231	2.155070
96.364300	1276.635175	0.580548	0.035068	2.162778
97.096751	1287.687075	0.585553	0.034928	2.170473
97.702141	1298.728746	0.590558	0.034812	2.178106
98.186201	1309.780506	0.595562	0.034718	2.185690
98.607458	1320.807823	0.600567	0.034637	2.193217
99.404817	1331.776195	0.605572	0.034484	2.200764
100.033869	1342.844125	0.610576	0.034364	2.208314
100.747169	1353.859135	0.615581	0.034227	2.215821
101.300379	1364.893964	0.620586	0.034120	2.223280
101.923348	1375.911735	0.625591	0.034001	2.230718
102.182738	1387.004065	0.630595	0.033949	2.238100
102.563974	1398.000388	0.635600	0.033875	2.245421
103.078714	1409.010402	0.640605	0.033776	2.252756
103.704923	1420.026281	0.645610	0.033656	2.260096
104.472457	1431.058579	0.650614	0.033509	2.267453
104.765759	1442.102577	0.655619	0.033451	2.274691
105.284402	1453.100636	0.660624	0.033351	2.281924
106.019025	1464.131349	0.665628	0.033210	2.289203
106.603559	1475.147893	0.670633	0.033098	2.296416
107.002996	1486.211567	0.675638	0.033020	2.303598
107.864554	1497.161339	0.680643	0.032856	2.310782
108.420474	1508.239774	0.685647	0.032749	2.317961
109.165105	1519.242474	0.690652	0.032606	2.325110
110.026351	1530.260990	0.695657	0.032442	2.332270
110.495343	1541.334858	0.700661	0.032351	2.339362
110.966044	1552.324821	0.705666	0.032260	2.346379
111.393615	1563.393627	0.710671	0.032177	2.353416
111.761514	1574.390864	0.715676	0.032106	2.360374
112.269454	1585.421400	0.720680	0.032008	2.367362
112.757168	1596.452573	0.725685	0.031913	2.374325
113.399699	1607.432234	0.730690	0.031790	2.381267
113.774928	1618.508156	0.735695	0.031717	2.388194
114.404424	1629.505594	0.740699	0.031596	2.395104
114.897942	1640.531768	0.745704	0.031501	2.401984
115.531786	1651.543613	0.750709	0.031379	2.408863
116.056790	1662.597131	0.755713	0.031278	2.415727
116.471185	1673.613350	0.760718	0.031197	2.422526
116.867270	1684.645312	0.765723	0.031120	2.429311
117.445065	1695.627191	0.770728	0.031009	2.436084
118.131679	1706.661980	0.775732	0.030878	2.442891
118.695415	1717.698563	0.780737	0.030769	2.449655
119.111507	1728.729537	0.785742	0.030688	2.456369
119.492680	1739.763103	0.790747	0.030614	2.463058
120.122239	1750.732240	0.795751	0.030493	2.469740
120.528068	1761.837548	0.800756	0.030414	2.476440
120.989960	1772.804643	0.805761	0.030325	2.483052
121.529755	1783.839256	0.810765	0.030221	2.489700
121.937253	1794.871651	0.815770	0.030142	2.496304
122.309780	1805.926953	0.820775	0.030069	2.502897
122.701711	1816.895931	0.825780	0.029993	2.509426
123.279006	1827.921222	0.830784	0.029882	2.516006
123.717574	1838.960595	0.835789	0.029797	2.522551
124.328409	1849.983611	0.840794	0.029679	2.529101
124.601547	1860.990822	0.845799	0.029625	2.535562
124.827266	1872.056917	0.850803	0.029580	2.542031
125.273872	1883.034254	0.855808	0.029494	2.548474
126.073933	1894.033768	0.860813	0.029341	2.554979
126.561658	1905.085409	0.865817	0.029247	2.561439
127.110174	1916.111242	0.870822	0.029141	2.567879
127.630891	1927.162488	0.875827	0.029041	2.574312
127.950153	1938.185632	0.880832	0.028978	2.580676
128.513772	1949.152925	0.885836	0.028869	2.587038
129.098211	1960.183042	0.890841	0.028757	2.593423
129.809773	1971.185755	0.895846	0.028621	2.599799
130.315760	1982.238795	0.900850	0.028523	2.606151
130.563786	1993.284319	0.905855	0.028474	2.612437
131.119457	2004.265782	0.910860	0.028367	2.618727
131.713169	2015.261958	0.915865	0.028253	2.625016
132.309723	2026.321185	0.920869	0.028138	2.631326
132.794406	2037.354115	0.925874	0.028044	2.637587
133.154549	2048.356778	0.930879	0.027974	2.643793
133.531274	2059.363378	0.935884	0.027901	2.649990
133.832907	2070.399065	0.940888	0.027841	2.656175
134.507897	2081.377050	0.945893	0.027712	2.662379
135.126540	2092.422627	0.950898	0.027593	2.668596
135.440792	2103.460031	0.955902	0.027531	2.674741
135.587977	2114.503569	0.960907	0.027501	2.680846
135.989385	2125.471964	0.965912	0.027423	2.686939
136.587153	2136.507402	0.970917	0.027308	2.693090
137.255732	2147.487557	0.975921	0.027180	2.699209
137.615570	2158.554445	0.980926	0.027110	2.705307
138.141648	2169.562101	0.985931	0.027008	2.711388
138.570379	2180.609761	0.990936	0.026925	2.717460
139.018682	2191.590560	0.995940	0.026838	2.723486
139.410874	2202.657297	1.000945	0.026762	2.729535
139.889158	2213.633915	1.005950	0.026670	2.735537
140.404978	2224.662938	1.010954	0.026570	2.741560
140.746028	2235.694379	1.015959	0.026503	2.747542
141.278783	2246.685451	1.020964	0.026401	2.753520
141.762792	2257.726315	1.025969	0.026307	2.759505
142.313476	2268.754465	1.030973	0.026201	2.765480
142.594194	2279.779545	1.035978	0.026146	2.771396
142.866183	2290.800676	1.040983	0.026092	2.777296
143.146092	2301.818936	1.045988	0.026037	2.783183
143.649778	2312.822916	1.050992	0.025939	2.789086
144.144973	2323.848751	1.055997	0.025844	2.794988
144.436337	2334.874213	1.061002	0.025786	2.800843
145.034471	2345.868618	1.066006	0.025671	2.806719
145.288231	2356.961759	1.071011	0.025621	2.812579
145.737147	2367.901858	1.076016	0.025534	2.818378
146.274094	2378.937627	1.081021	0.025431	2.824229
146.928718	2389.933454	1.086025	0.025305	2.830066
147.252825	2401.008965	1.091030	0.025241	2.835880
147.543856	2412.020308	1.096035	0.025184	2.841642
147.856584	2423.050664	1.101039	0.025123	2.847406
148.342915	2434.026514	1.106044	0.025029	2.853158
148.792704	2445.053346	1.111049	0.024942	2.858919
149.218938	2456.082311	1.116054	0.024859	2.864665
149.734248	2467.103436	1.121058	0.024759	2.870410
149.916670	2478.129118	1.126063	0.024722	2.876093
150.379941	2489.154529	1.131068	0.024633	2.881809
150.863336	2500.128896	1.136073	0.024539	2.887490
151.404776	2511.197742	1.141077	0.024435	2.893218
151.698918	2522.196127	1.146082	0.024377	2.898859
152.238046	2533.204577	1.151087	0.024273	2.904533
152.639723	2544.234735	1.156091	0.024195	2.910185
153.213889	2555.237740	1.161096	0.024085	2.915839
153.870144	2566.248824	1.166101	0.023959	2.921498
154.257099	2577.304734	1.171106	0.023883	2.927128
154.686969	2588.286009	1.176110	0.023800	2.932716
155.251825	2599.331016	1.181115	0.023691	2.938345
155.534595	2610.338418	1.186120	0.023636	2.943902
155.980677	2621.377258	1.191125	0.023549	2.949489
156.100288	2632.404033	1.196129	0.023524	2.955010
156.662908	2643.389798	1.201134	0.023416	2.960566
157.061723	2654.422039	1.206139	0.023338	2.966111
157.455093	2665.443027	1.211143	0.023262	2.971639
158.018804	2676.419516	1.216148	0.023153	2.977160
158.493840	2687.493161	1.221153	0.023061	2.982705
158.843843	2698.478198	1.226158	0.022993	2.988178
159.302122	2709.513881	1.231162	0.022904	2.993681
159.585055	2720.545118	1.236167	0.022848	2.999146
160.063568	2731.544844	1.241172	0.022756	3.004615
160.428861	2742.566074	1.246177	0.022685	3.010067
161.001499	2753.584300	1.251181	0.022574	3.015538
161.361762	2764.595460	1.256186	0.022504	3.020965
161.884507	2775.616515	1.261191	0.022403	3.026410
162.296112	2786.639300	1.266195	0.022323	3.031830
162.826545	2797.646651	1.271200	0.022221	3.037251
162.993126	2808.689062	1.276205	0.022187	3.042625
163.511786	2819.693009	1.281210	0.022087	3.048022
163.798008	2830.714674	1.286214	0.022030	3.053385
164.386974	2841.722033	1.291219	0.021917	3.058775
164.800962	2852.741257	1.296224	0.021837	3.064136
165.235397	2863.770888	1.301228	0.021753	3.069495
165.501930	2874.788797	1.306233	0.021700	3.074815
166.047881	2885.797804	1.311238	0.021595	3.080162
166.296198	2896.829968	1.316243	0.021545	3.085467
166.876113	2907.839936	1.321247	0.021434	3.090800
167.263368	2918.845976	1.326252	0.021358	3.096095
167.896924	2929.849566	1.331257	0.021237	3.101414
168.138732	2940.898493	1.336262	0.021189	3.106690
168.740303	2951.888421	1.341266	0.021073	3.111980
169.124741	2962.930802	1.346271	0.020998	3.117255
169.446804	2973.939887	1.351276	0.020935	3.122496
169.903798	2984.973774	1.356280	0.020847	3.127759
170.291989	2995.979263	1.361285	0.020771	3.132991
170.792188	3006.975912	1.366290	0.020674	3.138224
171.323856	3018.002859	1.371295	0.020572	3.143468
171.723839	3029.026728	1.376299	0.020494	3.148683
172.308837	3040.046422	1.381304	0.020382	3.153912
172.751837	3051.056341	1.386309	0.020296	3.159109
173.184646	3062.087175	1.391314	0.020212	3.164306
173.401699	3073.130530	1.396318	0.020168	3.169470
173.635985	3084.117090	1.401323	0.020122	3.174602
174.027889	3095.136310	1.406328	0.020046	3.179762
174.451146	3106.155239	1.411332	0.019963	3.184918
174.812643	3117.166508	1.416337	0.019893	3.190053
175.044020	3128.210086	1.421342	0.019847	3.195178
175.387549	3139.224755	1.426347	0.019779	3.200296
175.855823	3150.211636	1.431351	0.019689	3.205409
176.200494	3161.257211	1.436356	0.019621	3.210525
176.495268	3172.240464	1.441361	0.019563	3.215597
176.788768	3183.291587	1.446366	0.019506	3.220692
177.102865	3194.288888	1.451370	0.019444	3.225757
177.455245	3205.294780	1.456375	0.019375	3.230824
177.812586	3216.338147	1.461380	0.019305	3.235899
178.304462	3227.327393	1.466384	0.019210	3.240960
178.925101	3238.352937	1.471389	0.019091	3.246046
179.053799	3249.389251	1.476394	0.019064	3.251065
179.473011	3260.375695	1.481399	0.018983	3.256091
179.763632	3271.422054	1.486403	0.018926	3.261119
180.376043	3282.407857	1.491408	0.018808	3.266155
180.678730	3293.466835	1.496413	0.018748	3.271175
180.921437	3304.460264	1.501417	0.018700	3.276150
181.184761	3315.497448	1.506422	0.018648	3.281140
181.809997	3326.481585	1.511427	0.018528	3.286145
182.109171	3337.519083	1.516432	0.018469	3.291124
182.617067	3348.518882	1.521436	0.018371	3.296106
182.830240	3359.542915	1.526441	0.018328	3.301053
183.362302	3370.566425	1.531446	0.018226	3.306033
183.634779	3381.572168	1.536451	0.018172	3.310964
184.009770	3392.602704	1.541455	0.018099	3.315912
184.495703	3403.594617	1.546460	0.018005	3.320850
185.114062	3414.628555	1.551465	0.017886	3.325815
185.372582	3425.661567	1.556469	0.017835	3.330727
185.799117	3436.658568	1.561474	0.017752	3.335637
186.137598	3447.666654	1.566479	0.017686	3.340533
186.641099	3458.702748	1.571484	0.017589	3.345456
187.116077	3469.716752	1.576488	0.017497	3.350357
187.415527	3480.727149	1.581493	0.017438	3.355228
187.631058	3491.751843	1.586498	0.017395	3.360088
187.783108	3502.792747	1.591503	0.017364	3.364940
188.180979	3513.781289	1.596507	0.017286	3.369792
188.643877	3524.774225	1.601512	0.017197	3.374647
188.956913	3535.816922	1.606517	0.017135	3.379498
189.427302	3546.817299	1.611521	0.017044	3.384343
189.488033	3557.880400	1.616526	0.017030	3.389159
189.700803	3568.869941	1.621531	0.016987	3.393954
189.953446	3579.898685	1.626536	0.016937	3.398764
190.357485	3590.867792	1.631540	0.016859	3.403560
190.864907	3601.912111	1.636545	0.016761	3.408393
191.190631	3612.929139	1.641550	0.016697	3.413187
191.390137	3623.947098	1.646555	0.016657	3.417958
191.985001	3634.936711	1.651559	0.016542	3.422758
192.520243	3645.969076	1.656564	0.016439	3.427563
193.015124	3656.976949	1.661569	0.016344	3.432345
193.611154	3668.009050	1.666573	0.016229	3.437143
194.032353	3679.007016	1.671578	0.016147	3.441899
194.365249	3690.065512	1.676583	0.016082	3.446663
194.851489	3701.051097	1.681588	0.015988	3.451408
195.123706	3712.066663	1.686592	0.015934	3.456134
195.505917	3723.078223	1.691597	0.015860	3.460864
196.071523	3734.120824	1.696602	0.015751	3.465623
196.238286	3745.128486	1.701606	0.015717	3.470313
196.470757	3756.136070	1.706611	0.015671	3.475005
197.095974	3767.134967	1.711616	0.015551	3.479732
197.550583	3778.183688	1.716621	0.015463	3.484454
198.105062	3789.177501	1.721625	0.015356	3.489158
198.106524	3800.222558	1.726630	0.015353	3.493814
198.580107	3811.225125	1.731635	0.015261	3.498499
198.858963	3822.224035	1.736640	0.015206	3.503154
199.275801	3833.265642	1.741644	0.015125	3.507837
199.450967	3844.268354	1.746649	0.015090	3.512469
200.041876	3855.276159	1.751654	0.014976	3.517145
200.365360	3866.296513	1.756658	0.014913	3.521789
200.820950	3877.320474	1.761663	0.014824	3.526444
200.990127	3888.345848	1.766668	0.014790	3.531061
201.478989	3899.324538	1.771673	0.014696	3.535688
201.851945	3910.365269	1.776677	0.014623	3.540321
202.222435	3921.383117	1.781682	0.014551	3.544939
202.530338	3932.405498	1.786687	0.014490	3.549546
202.839601	3943.420999	1.791692	0.014429	3.554143
203.325110	3954.404213	1.796696	0.014335	3.558742
203.818976	3965.442168	1.801701	0.014240	3.563357
204.342745	3976.465635	1.806706	0.014139	3.567964
204.665074	3987.464810	1.811710	0.014076	3.572532
204.898873	3998.505961	1.816715	0.014029	3.577102
205.410861	4009.483681	1.821720	0.013930	3.581671
205.794418	4020.543073	1.826725	0.013856	3.586253
206.301997	4031.517424	1.831729	0.013758	3.590808
206.474850	4042.569860	1.836734	0.013723	3.595353
206.826014	4053.570409	1.841739	0.013654	3.599890
207.077423	4064.594218	1.846744	0.013604	3.604419
207.503015	4075.606309	1.851748	0.013522	3.608957
207.692191	4086.621301	1.856753	0.013483	3.613465
208.214957	4097.671164	1.861758	0.013382	3.618018
208.572354	4108.701773	1.866762	0.013313	3.622539
209.037240	4119.690207	1.871767	0.013223	3.627048
209.337465	4130.738766	1.876772	0.013164	3.631559
209.634252	4141.722763	1.881777	0.013105	3.636038
209.965091	4152.779540	1.886781	0.013040	3.640544
210.354647	4163.784491	1.891786	0.012965	3.645029
210.560070	4174.786192	1.896791	0.012923	3.649488
211.086356	4185.783490	1.901795	0.012822	3.653974
211.379296	4196.826051	1.906800	0.012764	3.658448
212.022734	4207.827345	1.911805	0.012641	3.662937
212.320016	4218.889464	1.916810	0.012582	3.667408
212.590007	4229.839259	1.921814	0.012529	3.671826
212.788970	4240.908529	1.926819	0.012489	3.676278
213.289445	4251.893535	1.931824	0.012392	3.680723
213.574005	4262.923046	1.936829	0.012336	3.685158
213.856495	4273.925916	1.941833	0.012280	3.689577
214.117213	4284.962818	1.946838	0.012229	3.694001
214.531605	4295.941635	1.951843	0.012148	3.698413
214.728167	4307.023788	1.956847	0.012108	3.702838
215.337681	4317.983390	1.961852	0.011991	3.707252
215.827251	4329.002008	1.966857	0.011897	3.711672
216.045391	4340.039327	1.971862	0.011853	3.716065
216.233925	4351.048632	1.976866	0.011815	3.720440
216.724172	4362.041767	1.981871	0.011720	3.724833
216.952640	4373.063149	1.986876	0.011675	3.729206
217.361803	4384.080193	1.991881	0.011595	3.733590
217.712763	4395.112114	1.996885	0.011527	3.737969
218.063260	4406.126417	2.001890	0.011458	3.742336
218.392943	4417.152902	2.006895	0.011394	3.746700
