Wed Nov 23 17:12:02 2022

Number of Points = 2200
Depth (nm)	Load (µN)	Time (s)	Depth (V)	Load (V)
-0.660619	1.215429	0.000000	0.059830	0.877678
0.000000	7.184475	0.005005	0.059705	0.888100
1.039467	15.959872	0.010009	0.059507	0.903245
2.082970	26.385220	0.015014	0.059309	0.920798
3.082336	37.396378	0.020019	0.059119	0.938921
3.921217	48.569102	0.025024	0.058959	0.956856
4.494460	59.838169	0.030028	0.058848	0.974458
4.917574	71.083109	0.035033	0.058766	0.991628
5.680109	82.190311	0.040038	0.058620	1.008488
6.244284	93.377265	0.045043	0.058512	1.025078
6.711955	104.585022	0.050047	0.058421	1.041383
7.249849	115.729910	0.055052	0.058317	1.057385
7.729119	126.895488	0.060057	0.058225	1.073146
8.202294	138.029913	0.065061	0.058133	1.088633
8.618583	149.207094	0.070066	0.058052	1.103932
9.062994	160.310295	0.075071	0.057966	1.118937
9.479240	171.460842	0.080076	0.057885	1.133791
9.689581	182.615926	0.085080	0.057843	1.148362
10.130410	193.695338	0.090085	0.057758	1.162761
10.577629	204.799090	0.095090	0.057671	1.177017
11.151551	215.888089	0.100094	0.057561	1.191142
11.672832	226.994939	0.105099	0.057460	1.205098
12.015576	238.151454	0.110104	0.057393	1.218876
12.220634	249.271425	0.115109	0.057352	1.232395
12.558304	260.352448	0.120113	0.057286	1.245779
25.248160	268.599834	0.125118	0.054902	1.260993
28.985433	281.736921	0.130123	0.054198	1.277895
29.471472	293.485987	0.135128	0.054104	1.291628
30.168056	304.708239	0.140132	0.053970	1.304706
30.612689	315.800637	0.145137	0.053884	1.317406
31.375927	326.828482	0.150142	0.053738	1.330040
32.158869	337.857214	0.155146	0.053589	1.342565
33.396022	348.896704	0.160151	0.053354	1.355165
33.846057	360.091996	0.165156	0.053266	1.367507
34.830119	371.116599	0.170161	0.053079	1.379764
35.471320	382.207784	0.175165	0.052956	1.391850
36.414757	393.246278	0.180170	0.052776	1.403892
37.231399	404.328681	0.185175	0.052620	1.415829
37.970045	415.413751	0.190180	0.052479	1.427640
38.921659	426.441720	0.195184	0.052298	1.439373
39.637792	437.545879	0.200189	0.052161	1.451002
40.333423	448.623325	0.205194	0.052027	1.462503
41.099825	459.696039	0.210198	0.051881	1.473935
41.922749	470.706937	0.215203	0.051724	1.485238
42.886461	481.786885	0.220208	0.051540	1.496573
43.335321	492.907038	0.225213	0.051453	1.507680
44.128643	503.911126	0.230217	0.051301	1.518713
44.759199	514.991672	0.235222	0.051180	1.529683
45.595366	526.033704	0.240227	0.051021	1.540609
46.390025	537.068318	0.245232	0.050869	1.551436
47.054577	548.175011	0.250236	0.050741	1.562212
47.734196	559.191174	0.255241	0.050611	1.572833
48.831324	570.213643	0.260246	0.050403	1.583528
49.466034	581.297906	0.265250	0.050281	1.594055
50.328612	592.361570	0.270255	0.050116	1.604569
50.992893	603.417606	0.275260	0.049989	1.614942
51.757330	614.481760	0.280265	0.049843	1.625288
52.110013	625.573210	0.285269	0.049774	1.635460
52.851050	636.540713	0.290274	0.049632	1.645582
53.690319	647.596161	0.295279	0.049472	1.655752
54.457163	658.669160	0.300283	0.049325	1.665852
54.983084	669.726375	0.305288	0.049224	1.675801
55.734044	680.759638	0.310293	0.049080	1.685740
56.158339	691.838794	0.315298	0.048998	1.695560
57.107614	702.806872	0.320302	0.048817	1.705388
57.683657	713.904445	0.325307	0.048706	1.715156
58.522292	724.908676	0.330312	0.048546	1.724869
59.256306	735.977905	0.335317	0.048405	1.734551
60.123716	746.984319	0.340321	0.048240	1.744165
60.778184	758.069057	0.345326	0.048114	1.753729
61.490915	769.111918	0.350331	0.047978	1.763223
62.110689	780.167846	0.355335	0.047859	1.772649
62.756029	791.194893	0.360340	0.047735	1.782009
63.363337	802.241416	0.365345	0.047618	1.791324
64.025903	813.276437	0.370350	0.047491	1.800598
64.534515	824.330405	0.375354	0.047393	1.809795
65.377880	835.335639	0.380359	0.047232	1.819001
65.927826	846.390117	0.385364	0.047126	1.828117
66.500414	857.466049	0.390369	0.047016	1.837211
66.915842	868.507397	0.395373	0.046935	1.846188
67.675435	879.500059	0.400378	0.046790	1.855179
68.253775	890.551113	0.405383	0.046679	1.864122
69.271924	901.513417	0.410387	0.046485	1.873073
69.922780	912.616069	0.415392	0.046360	1.881991
70.724389	923.644493	0.420397	0.046207	1.890850
71.207003	934.718347	0.425402	0.046114	1.899615
71.960855	945.706989	0.430406	0.045970	1.908348
72.717032	956.746864	0.435411	0.045825	1.917080
73.495263	967.799185	0.440416	0.045676	1.925788
74.076350	978.837220	0.445421	0.045564	1.934393
74.698529	989.863018	0.450425	0.045445	1.942962
75.142933	1000.913245	0.455430	0.045359	1.951464
75.942778	1011.938487	0.460435	0.045206	1.960003
76.651275	1022.939075	0.465439	0.045070	1.968463
77.481088	1034.009245	0.470444	0.044912	1.976969
77.967248	1045.055181	0.475449	0.044818	1.985332
78.662087	1056.063477	0.480454	0.044685	1.993686
79.256468	1067.113423	0.485458	0.044571	2.002009
79.917588	1078.161707	0.490463	0.044444	2.010313
80.429876	1089.187773	0.495468	0.044345	2.018529
81.093741	1100.204282	0.500472	0.044218	2.026743
81.740717	1111.232652	0.505477	0.044094	2.034928
82.619299	1122.244937	0.510482	0.043926	2.043125
83.141571	1133.309910	0.515487	0.043825	2.051239
83.908902	1144.328807	0.520491	0.043679	2.059349
84.431516	1155.370511	0.525496	0.043578	2.067382
84.775676	1166.438755	0.530501	0.043510	2.075360
85.169566	1177.450289	0.535506	0.043434	2.083279
85.987636	1188.435407	0.540510	0.043278	2.091251
86.589867	1199.487114	0.545515	0.043162	2.099188
87.401834	1210.487137	0.550520	0.043007	2.107108
87.973886	1221.555747	0.555524	0.042897	2.114990
88.544263	1232.572867	0.560529	0.042787	2.122805
89.040949	1243.622064	0.565534	0.042691	2.130597
89.544465	1254.655867	0.570539	0.042594	2.138351
89.791460	1265.694855	0.575543	0.042545	2.146020
90.428559	1276.703129	0.580548	0.042422	2.153732
91.275265	1287.677778	0.585553	0.042261	2.161441
91.847592	1298.754695	0.590558	0.042151	2.169129
92.250695	1309.798103	0.595562	0.042072	2.176729
92.885679	1320.813052	0.600567	0.041950	2.184335
93.464168	1331.809948	0.605572	0.041839	2.191889
94.366456	1342.844612	0.610576	0.041667	2.199517
94.872853	1353.882667	0.615581	0.041569	2.207030
95.572421	1364.912162	0.620586	0.041435	2.214556
96.062224	1375.936431	0.625591	0.041341	2.222005
96.761974	1386.965865	0.630595	0.041207	2.229479
97.169003	1398.008514	0.635600	0.041128	2.236872
97.764813	1409.039948	0.640605	0.041013	2.244275
98.103069	1420.070794	0.645610	0.040947	2.251596
98.607329	1431.093454	0.650614	0.040850	2.258924
99.020486	1442.102327	0.655619	0.040769	2.266200
99.788173	1453.126662	0.660624	0.040623	2.273539
100.147524	1464.168981	0.665628	0.040552	2.280777
100.742245	1475.178979	0.670633	0.040438	2.288023
101.020013	1486.243355	0.675638	0.040383	2.295212
101.859209	1497.176283	0.680643	0.040223	2.302414
102.565258	1508.259535	0.685647	0.040088	2.309662
103.274173	1519.268083	0.690652	0.039952	2.316839
103.677004	1530.330251	0.695657	0.039874	2.323964
104.204575	1541.339720	0.700661	0.039772	2.331059
104.418993	1552.399866	0.705666	0.039729	2.338099
104.946724	1563.366409	0.710671	0.039627	2.345124
105.409606	1574.420770	0.715676	0.039538	2.352170
106.282313	1585.392936	0.720680	0.039371	2.359228
107.030193	1596.425916	0.725685	0.039228	2.366277
107.623918	1607.500565	0.730690	0.039114	2.373299
107.990154	1618.516021	0.735695	0.039043	2.380216
108.498431	1629.528055	0.740699	0.038944	2.387141
109.133171	1640.540759	0.745704	0.038823	2.394071
109.894881	1651.544004	0.750709	0.038677	2.401001
110.414385	1662.628421	0.755713	0.038577	2.407911
110.802677	1673.646188	0.760718	0.038501	2.414735
111.225757	1684.641009	0.765723	0.038419	2.421532
111.922907	1695.651038	0.770728	0.038286	2.428374
112.673359	1706.685219	0.775732	0.038142	2.435222
113.050222	1717.734404	0.780737	0.038069	2.441985
113.572520	1728.739956	0.785742	0.037968	2.448732
114.104936	1739.771520	0.790747	0.037865	2.455477
114.360827	1750.816609	0.795751	0.037814	2.462158
114.880065	1761.806811	0.800756	0.037714	2.468840
115.252584	1772.858448	0.805761	0.037642	2.475511
115.683328	1783.886809	0.810765	0.037558	2.482161
115.954993	1794.897223	0.815770	0.037504	2.488753
116.639265	1805.894699	0.820775	0.037373	2.495398
117.169236	1816.926922	0.825780	0.037271	2.502017
117.865653	1827.940860	0.830784	0.037138	2.508639
118.295386	1838.966991	0.835789	0.037054	2.515200
118.751036	1850.005059	0.840794	0.036966	2.521755
119.120210	1861.030488	0.845799	0.036894	2.528270
119.895628	1872.009046	0.850803	0.036746	2.534817
120.226938	1883.082893	0.855808	0.036681	2.541319
120.823959	1894.063269	0.860813	0.036566	2.547799
121.393696	1905.112606	0.865817	0.036457	2.554298
121.868559	1916.120489	0.870822	0.036365	2.560739
122.593164	1927.139204	0.875827	0.036226	2.567215
123.146950	1938.200160	0.880832	0.036119	2.573668
123.606775	1949.216473	0.885836	0.036030	2.580062
124.185991	1960.224264	0.890841	0.035919	2.586457
124.593383	1971.238258	0.895846	0.035840	2.592808
125.221635	1982.232821	0.900850	0.035719	2.599172
125.764545	1993.290022	0.905855	0.035615	2.605541
126.216925	2004.314526	0.910860	0.035527	2.611859
126.525131	2015.333031	0.915865	0.035466	2.618132
127.001291	2026.333530	0.920869	0.035374	2.624411
127.394447	2037.369188	0.925874	0.035298	2.630679
127.968030	2048.370723	0.930879	0.035187	2.636945
128.361917	2059.403421	0.935884	0.035111	2.643181
128.739521	2070.414085	0.940888	0.035037	2.649388
129.118284	2081.442280	0.945893	0.034963	2.655590
129.667165	2092.447688	0.950898	0.034858	2.661794
129.877680	2103.480978	0.955902	0.034816	2.667940
130.503153	2114.473224	0.960907	0.034695	2.674122
131.128768	2125.495091	0.965912	0.034575	2.680306
131.572225	2136.533366	0.970917	0.034489	2.686453
131.896875	2147.581596	0.975921	0.034426	2.692570
132.335539	2158.558182	0.980926	0.034341	2.698654
132.975417	2169.558280	0.985931	0.034218	2.704771
133.797740	2180.580960	0.990936	0.034061	2.710919
134.054065	2191.661243	0.995940	0.034010	2.716986
134.358399	2202.679457	1.000945	0.033950	2.723014
134.819229	2213.652947	1.005950	0.033861	2.729031
135.226062	2224.707032	1.010954	0.033782	2.735070
135.727100	2235.698424	1.015959	0.033685	2.741077
136.243718	2246.742809	1.020964	0.033586	2.747102
136.610844	2257.744267	1.025969	0.033514	2.753065
137.217049	2268.768607	1.030973	0.033397	2.759068
137.571420	2279.801868	1.035978	0.033328	2.765020
138.232251	2290.792697	1.040983	0.033201	2.770987
138.562669	2301.853254	1.045988	0.033137	2.776924
139.045091	2312.855630	1.050992	0.033044	2.782843
139.306414	2323.872591	1.055997	0.032992	2.788719
139.558546	2334.918945	1.061002	0.032942	2.794598
139.968978	2345.914629	1.066006	0.032862	2.800463
140.378082	2356.941415	1.071011	0.032782	2.806332
140.811122	2367.964108	1.076016	0.032698	2.812191
141.131444	2378.961864	1.081021	0.032636	2.818005
141.315852	2390.009412	1.086025	0.032598	2.823812
141.969715	2401.010893	1.091030	0.032473	2.829659
142.588676	2411.992736	1.096035	0.032354	2.835477
143.251117	2423.043961	1.101039	0.032227	2.841326
143.620152	2434.076394	1.106044	0.032155	2.847107
143.959962	2445.091820	1.111049	0.032089	2.852862
144.276091	2456.105753	1.116054	0.032026	2.858601
144.691977	2467.135058	1.121058	0.031946	2.864352
145.531098	2478.095401	1.126063	0.031786	2.870123
146.104393	2489.168016	1.131068	0.031675	2.875898
146.383970	2500.230152	1.136073	0.031620	2.881609
146.597181	2511.180958	1.141077	0.031577	2.887242
147.139006	2522.243511	1.146082	0.031473	2.892972
147.566819	2533.227415	1.151087	0.031390	2.898633
147.883754	2544.270990	1.156091	0.031328	2.904295
148.364753	2555.278219	1.161096	0.031235	2.909954
148.503151	2566.331456	1.166101	0.031206	2.915572
148.784738	2577.319100	1.171106	0.031150	2.921168
149.265270	2588.316305	1.176110	0.031058	2.926788
149.800198	2599.344681	1.181115	0.030954	2.932422
150.079794	2610.373863	1.186120	0.030899	2.938006
150.529620	2621.382457	1.191125	0.030812	2.943595
150.928841	2632.422283	1.196129	0.030735	2.949181
151.381291	2643.412891	1.201134	0.030647	2.954740
151.800679	2654.457955	1.206139	0.030565	2.960311
152.195914	2665.474500	1.211143	0.030489	2.965853
152.605394	2676.501494	1.216148	0.030409	2.971392
153.195922	2687.467576	1.221153	0.030296	2.976918
153.455268	2698.524649	1.226158	0.030244	2.982428
154.050630	2709.531218	1.231162	0.030130	2.987954
154.372206	2720.554730	1.236167	0.030067	2.993437
154.839230	2731.582853	1.241172	0.029976	2.998933
155.146564	2742.602288	1.246177	0.029916	3.004392
155.291063	2753.632543	1.251181	0.029886	3.009822
155.599711	2764.621979	1.256186	0.029825	3.015246
156.051050	2775.666031	1.261191	0.029738	3.020708
156.489644	2786.656236	1.266195	0.029653	3.026132
156.923641	2797.692423	1.271200	0.029569	3.031567
157.241132	2808.698955	1.276205	0.029506	3.036962
157.799707	2819.695702	1.281210	0.029399	3.042377
158.429601	2830.736493	1.286214	0.029278	3.047814
159.006943	2841.746175	1.291219	0.029167	3.053218
159.391106	2852.770242	1.296224	0.029092	3.058592
160.104007	2863.752991	1.301228	0.028956	3.063984
160.317119	2874.837949	1.306233	0.028913	3.069344
160.597929	2885.833150	1.311238	0.028857	3.074660
160.787010	2896.865859	1.316243	0.028819	3.079973
161.212227	2907.867216	1.321247	0.028737	3.085294
161.522108	2918.896767	1.326252	0.028676	3.090604
161.819660	2929.882408	1.331257	0.028617	3.095882
162.331570	2940.909601	1.336262	0.028519	3.101200
162.908144	2951.910154	1.341266	0.028408	3.106506
163.583918	2962.934395	1.346271	0.028278	3.111828
164.001412	2973.966795	1.351276	0.028197	3.117108
164.241619	2985.007231	1.356280	0.028149	3.122359
164.706122	2995.995692	1.361285	0.028059	3.127607
164.977146	3007.028957	1.366290	0.028006	3.132840
165.464715	3018.031811	1.371295	0.027912	3.138080
165.779387	3029.065836	1.376299	0.027850	3.143303
166.152219	3040.077444	1.381304	0.027777	3.148513
166.581948	3051.097665	1.386309	0.027694	3.153728
166.811382	3062.116391	1.391314	0.027648	3.158905
167.246886	3073.123869	1.396318	0.027564	3.164096
167.687479	3084.145712	1.401323	0.027478	3.169287
168.054373	3095.155202	1.406328	0.027407	3.174453
168.494464	3106.192602	1.411332	0.027321	3.179633
168.768324	3117.194462	1.416337	0.027267	3.184766
169.287573	3128.215759	1.421342	0.027167	3.189932
169.712215	3139.228894	1.426347	0.027085	3.195074
170.371716	3150.233196	1.431351	0.026958	3.200235
170.689523	3161.275203	1.436356	0.026896	3.205359
170.920154	3172.303414	1.441361	0.026850	3.210456
171.313019	3183.273695	1.446366	0.026773	3.215541
171.739095	3194.323069	1.451370	0.026691	3.220658
172.036810	3205.323094	1.456375	0.026632	3.225727
172.394181	3216.358371	1.461380	0.026562	3.230812
172.777041	3227.375244	1.466384	0.026488	3.235884
173.172057	3238.370584	1.471389	0.026411	3.240940
173.493782	3249.418401	1.476394	0.026348	3.246002
173.952181	3260.403072	1.481399	0.026259	3.251045
174.215319	3271.442879	1.486403	0.026207	3.256080
174.672348	3282.450476	1.491408	0.026118	3.261118
174.979264	3293.461969	1.496413	0.026058	3.266130
175.377744	3304.501126	1.501417	0.025981	3.271158
175.648421	3315.502028	1.506422	0.025927	3.276145
176.226150	3326.523728	1.511427	0.025816	3.281174
176.321865	3337.554023	1.516432	0.025795	3.286136
176.853321	3348.564315	1.521436	0.025693	3.291138
177.220499	3359.555733	1.526441	0.025621	3.296102
177.717288	3370.565560	1.531446	0.025525	3.301084
178.049884	3381.610623	1.536451	0.025460	3.306053
178.511041	3392.622685	1.541455	0.025371	3.311016
178.772085	3403.633510	1.546460	0.025319	3.315946
179.205901	3414.668852	1.551465	0.025235	3.320901
179.455011	3425.681262	1.556469	0.025186	3.325815
179.904398	3436.687958	1.561474	0.025098	3.330744
180.201939	3447.711339	1.566479	0.025040	3.335654
180.519253	3458.723717	1.571484	0.024978	3.340555
180.734928	3469.747311	1.576488	0.024934	3.345441
181.122292	3480.759298	1.581493	0.024859	3.350335
181.428646	3491.772964	1.586498	0.024799	3.355213
181.833779	3502.784355	1.591503	0.024720	3.360096
182.068107	3513.838187	1.596507	0.024673	3.364968
182.343087	3524.828280	1.601512	0.024619	3.369811
182.672293	3535.822063	1.606517	0.024555	3.374654
183.085862	3546.873430	1.611521	0.024474	3.379527
183.380264	3557.862003	1.616526	0.024416	3.384350
183.635479	3568.917025	1.621531	0.024366	3.389190
183.877488	3579.892551	1.626536	0.024317	3.393987
184.261932	3590.930414	1.631540	0.024243	3.398822
184.519290	3601.927570	1.636545	0.024192	3.403617
184.957928	3612.963536	1.641550	0.024107	3.408444
185.119861	3623.961841	1.646555	0.024073	3.413214
185.605617	3634.979609	1.651559	0.023980	3.418024
186.105007	3645.988539	1.656564	0.023883	3.422826
186.709538	3657.021215	1.661569	0.023767	3.427644
187.056185	3668.026712	1.666573	0.023699	3.432412
187.459745	3679.038607	1.671578	0.023621	3.437183
187.858766	3690.062342	1.676583	0.023543	3.441952
188.251619	3701.091039	1.681588	0.023467	3.446715
188.571651	3712.102121	1.686592	0.023404	3.451456
189.082138	3723.114094	1.691597	0.023305	3.456213
189.516303	3734.121725	1.696602	0.023221	3.460953
189.978676	3745.148095	1.701606	0.023132	3.465697
190.199695	3756.170465	1.706611	0.023088	3.470404
190.748553	3767.163431	1.711616	0.022982	3.475131
190.930100	3778.202090	1.716621	0.022945	3.479829
191.652092	3789.210766	1.721625	0.022807	3.484569
191.872589	3800.235185	1.726630	0.022763	3.489252
192.214790	3811.231631	1.731635	0.022696	3.493931
192.283683	3822.305382	1.736640	0.022680	3.498604
192.654055	3833.269945	1.741644	0.022608	3.503260
192.924564	3844.309449	1.746649	0.022554	3.507929
193.288118	3855.299056	1.751654	0.022484	3.512582
193.660450	3866.344420	1.756658	0.022411	3.517254
193.975205	3877.345106	1.761663	0.022349	3.521893
194.204029	3888.373515	1.766668	0.022303	3.526528
194.680428	3899.359814	1.771673	0.022211	3.531168
195.007401	3910.400841	1.776677	0.022147	3.535807
195.211899	3921.413357	1.781682	0.022106	3.540415
195.421232	3932.416555	1.786687	0.022064	3.545013
195.877871	3943.424458	1.791692	0.021976	3.549635
196.207381	3954.473228	1.796696	0.021911	3.554253
196.506141	3965.469544	1.801701	0.021852	3.558840
197.068925	3976.488375	1.806706	0.021744	3.563460
197.370869	3987.524281	1.811710	0.021685	3.568052
197.588580	3998.512549	1.816715	0.021641	3.572609
197.825759	4009.533316	1.821720	0.021594	3.577175
198.360608	4020.533174	1.826725	0.021491	3.581760
198.677662	4031.574924	1.831729	0.021429	3.586333
199.003358	4042.588392	1.836734	0.021365	3.590888
199.403771	4053.581643	1.841739	0.021287	3.595438
199.957028	4064.590251	1.846744	0.021180	3.600005
200.481594	4075.621015	1.851748	0.021079	3.604572
201.029872	4086.629308	1.856753	0.020974	3.609126
201.351927	4097.703167	1.861758	0.020910	3.613677
201.816447	4108.727997	1.866762	0.020821	3.618217
202.057696	4119.737444	1.871767	0.020773	3.622721
202.642473	4130.757120	1.876772	0.020660	3.627261
202.742675	4141.775876	1.881777	0.020639	3.631742
203.015993	4152.784750	1.886781	0.020585	3.636232
203.369878	4163.802330	1.891786	0.020515	3.640729
203.625286	4174.829015	1.896791	0.020465	3.645214
203.878410	4185.813626	1.901795	0.020415	3.649675
204.368992	4196.848327	1.906800	0.020320	3.654177
204.834741	4207.847778	1.911805	0.020230	3.658656
205.039648	4218.905053	1.916810	0.020188	3.663125
205.690089	4229.908431	1.921814	0.020064	3.667614
205.958885	4240.886921	1.926819	0.020011	3.672048
206.506631	4251.934225	1.931824	0.019905	3.676532
206.770112	4262.921066	1.936829	0.019853	3.680958
207.229063	4273.969340	1.941833	0.019764	3.685422
207.140726	4284.993288	1.946838	0.019778	3.689815
207.695899	4295.968418	1.951843	0.019671	3.694250
207.856146	4307.022825	1.956847	0.019638	3.698669
208.166510	4318.012137	1.961852	0.019577	3.703074
208.500870	4329.050212	1.966857	0.019512	3.707494
208.796868	4340.025959	1.971862	0.019453	3.711881
209.036124	4351.083308	1.976866	0.019406	3.716289
209.616751	4362.056558	1.981871	0.019294	3.720694
210.089626	4373.113174	1.986876	0.019203	3.725115
210.245876	4384.113643	1.991881	0.019171	3.729476
210.508844	4395.124805	1.996885	0.019119	3.733847
210.714913	4406.147977	2.001890	0.019077	3.738212
211.240764	4417.150726	2.006895	0.018976	3.742596
211.718416	4428.197564	2.011899	0.018883	3.746987
