Wed Nov 23 19:44:20 2022

Number of Points = 2200
Depth (nm)	Load (µN)	Time (s)	Depth (V)	Load (V)
-1.959044	0.691822	0.000000	0.027121	0.979868
0.000000	7.249090	0.005005	0.026752	0.990764
1.959393	16.438580	0.010009	0.026382	1.005407
3.681049	27.148898	0.015014	0.026056	1.021906
4.903799	38.286974	0.020019	0.025824	1.038488
6.061372	49.485337	0.025024	0.025604	1.054858
7.033540	60.658371	0.030028	0.025419	1.070848
8.223675	71.787523	0.035033	0.025193	1.086651
9.227689	82.941247	0.040038	0.025002	1.102168
10.295173	94.097135	0.045043	0.024799	1.117503
11.060501	105.274302	0.050047	0.024652	1.132512
11.699321	116.465649	0.055052	0.024530	1.147283
12.271306	127.564862	0.060057	0.024420	1.161718
13.134017	138.645821	0.065061	0.024255	1.176085
13.800796	149.778850	0.070066	0.024127	1.190254
14.654036	160.885895	0.075071	0.023964	1.204308
15.121597	172.038684	0.080076	0.023874	1.218084
15.563147	183.162959	0.085080	0.023788	1.231660
16.201829	194.212335	0.090085	0.023666	1.245084
17.020110	205.283705	0.095090	0.023509	1.258467
17.412618	216.436114	0.100094	0.023433	1.271622
18.054327	227.516967	0.105099	0.023310	1.284665
18.337007	238.650815	0.110104	0.023254	1.297487
18.652985	249.788864	0.115109	0.023192	1.310203
19.024370	260.803707	0.120113	0.023120	1.322681
19.872815	271.800762	0.125118	0.022958	1.335214
20.294912	282.939985	0.130123	0.022876	1.347616
20.740285	294.023748	0.135128	0.022789	1.359854
21.029124	305.120845	0.140132	0.022732	1.371936
21.348988	316.220161	0.145137	0.022670	1.383926
21.894643	327.216694	0.150142	0.022565	1.395791
22.354032	338.317515	0.155146	0.022476	1.407632
22.520135	349.416515	0.160151	0.022442	1.419262
22.761100	360.503812	0.165156	0.022394	1.430814
22.759460	371.599183	0.170161	0.022391	1.442191
23.248282	382.568952	0.175165	0.022297	1.453531
23.551700	393.669872	0.180170	0.022237	1.464848
23.901440	404.725788	0.185175	0.022169	1.476050
24.096460	415.809004	0.190180	0.022130	1.487139
24.288649	426.880148	0.195184	0.022091	1.498133
24.637642	437.881310	0.200189	0.022023	1.509033
24.863176	448.988836	0.205194	0.021977	1.519916
25.281249	459.996030	0.210198	0.021896	1.530690
38.711739	467.713630	0.215203	0.019374	1.542704
51.722069	480.695644	0.220208	0.016930	1.559451
52.019049	493.080345	0.225213	0.016871	1.571197
52.460327	504.218319	0.230217	0.016785	1.581744
53.227635	515.240365	0.235222	0.016639	1.592221
53.784649	526.316972	0.240227	0.016531	1.602611
54.444439	537.377906	0.245232	0.016405	1.612953
54.980341	548.436902	0.250236	0.016302	1.623186
55.545548	559.471529	0.255241	0.016193	1.633343
56.485073	570.440619	0.260246	0.016014	1.643497
57.305471	581.533006	0.265250	0.015857	1.653660
57.805535	592.632313	0.270255	0.015761	1.663667
58.323266	603.650958	0.275260	0.015661	1.673548
58.881644	614.718972	0.280265	0.015553	1.683426
59.657021	625.717821	0.285269	0.015405	1.693253
60.371124	636.795043	0.290274	0.015268	1.703072
60.913758	647.840609	0.295279	0.015164	1.712755
61.517526	658.874517	0.300283	0.015048	1.722392
62.203959	669.923397	0.305288	0.014916	1.732012
62.746211	680.973207	0.310293	0.014812	1.741537
63.320059	691.995272	0.315298	0.014701	1.750996
64.197780	703.014737	0.320302	0.014534	1.760491
64.914852	714.087193	0.325307	0.014397	1.769931
65.199909	725.194038	0.330312	0.014340	1.779224
65.814050	736.164391	0.335317	0.014222	1.788452
66.646922	747.171269	0.340321	0.014063	1.797724
67.176274	758.259606	0.345326	0.013961	1.806928
68.079959	769.249922	0.350331	0.013789	1.816113
68.649189	780.333540	0.355335	0.013679	1.825231
69.087371	791.385592	0.360340	0.013594	1.834241
69.553812	802.421598	0.365345	0.013504	1.843203
70.185652	813.445423	0.370350	0.013383	1.852157
70.916985	824.472585	0.375354	0.013243	1.861098
71.423058	835.524570	0.380359	0.013145	1.869953
72.253513	846.536208	0.385364	0.012987	1.878823
72.766389	857.589857	0.390369	0.012888	1.887598
73.192051	868.662713	0.395373	0.012805	1.896324
73.769787	879.644735	0.400378	0.012694	1.904980
74.504164	890.694259	0.405383	0.012553	1.913690
75.237033	901.710635	0.410387	0.012413	1.922334
75.819816	912.773135	0.415392	0.012301	1.930936
76.262889	923.816969	0.420397	0.012215	1.939447
76.838170	934.842203	0.425402	0.012105	1.947942
77.505903	945.853074	0.430406	0.011977	1.956414
78.148413	956.907034	0.435411	0.011853	1.964874
78.472376	967.963439	0.440416	0.011790	1.973217
78.999586	978.970493	0.445421	0.011688	1.981540
79.485849	990.007190	0.450425	0.011594	1.989840
80.242126	1001.005164	0.455430	0.011449	1.998145
80.676265	1012.111567	0.460435	0.011365	2.006414
81.158908	1023.119308	0.465439	0.011272	2.014588
81.498698	1034.139652	0.470444	0.011206	2.022703
82.672295	1045.114500	0.475449	0.010983	2.030960
83.274228	1056.194711	0.480454	0.010867	2.039117
83.953049	1067.215279	0.485458	0.010737	2.047218
84.344574	1078.324321	0.490463	0.010661	2.055279
84.688107	1089.316167	0.495468	0.010593	2.063214
85.285941	1100.311300	0.500472	0.010478	2.071182
85.876362	1111.363299	0.505477	0.010365	2.079157
86.420798	1122.382885	0.510482	0.010260	2.087068
87.135946	1133.420900	0.515487	0.010123	2.095003
87.529825	1144.455194	0.520491	0.010047	2.102828
88.114286	1155.478318	0.525496	0.009934	2.110662
88.555242	1166.520616	0.530501	0.009849	2.118446
89.026014	1177.540292	0.535506	0.009758	2.126192
89.707190	1188.544511	0.540510	0.009627	2.133949
90.642353	1199.548153	0.545515	0.009449	2.141736
91.035317	1210.641268	0.550520	0.009372	2.149430
91.401834	1221.684683	0.555524	0.009301	2.157057
91.865928	1232.682892	0.560529	0.009211	2.164648
92.504924	1243.696204	0.565534	0.009088	2.172263
93.053940	1254.754287	0.570539	0.008983	2.179860
93.457299	1265.777837	0.575543	0.008904	2.187375
93.776862	1276.814716	0.580548	0.008842	2.194854
94.296161	1287.804700	0.585553	0.008741	2.202320
95.124996	1298.808150	0.590558	0.008583	2.209840
95.654567	1309.880427	0.595562	0.008481	2.217313
95.932925	1320.933063	0.600567	0.008426	2.224692
96.559500	1331.905394	0.605572	0.008306	2.232070
96.699530	1343.010494	0.610576	0.008277	2.239404
97.340280	1353.960413	0.615581	0.008154	2.246722
97.784933	1365.027945	0.620586	0.008068	2.254050
98.256056	1376.048004	0.625591	0.007977	2.261329
98.732853	1387.048041	0.630595	0.007884	2.268573
99.045231	1398.119452	0.635600	0.007823	2.275804
99.470431	1409.103834	0.640605	0.007740	2.282980
100.165088	1420.108935	0.645610	0.007607	2.290204
100.819350	1431.147561	0.650614	0.007482	2.297419
101.342506	1442.205218	0.655619	0.007381	2.304595
101.548710	1453.224788	0.660624	0.007340	2.311657
102.030490	1464.244103	0.665628	0.007246	2.318755
102.493144	1475.249505	0.670633	0.007157	2.325819
103.813107	1486.129025	0.675638	0.006907	2.332962
106.143782	1497.179387	0.680643	0.006466	2.340400
106.649292	1508.332787	0.685647	0.006369	2.347499
106.780473	1519.415958	0.690652	0.006342	2.354455
107.239145	1530.385385	0.695657	0.006253	2.361388
107.727870	1541.395950	0.700661	0.006158	2.368332
108.343077	1552.439950	0.705666	0.006040	2.375302
108.779335	1563.462068	0.710671	0.005956	2.382201
109.500742	1574.461356	0.715676	0.005817	2.389124
109.845444	1585.527207	0.720680	0.005750	2.395992
110.448498	1596.504055	0.725685	0.005634	2.402837
111.169967	1607.527678	0.730690	0.005496	2.409715
111.846055	1618.585477	0.735695	0.005366	2.416585
112.275421	1629.587169	0.740699	0.005283	2.423351
112.670547	1640.641831	0.745704	0.005206	2.430125
112.847010	1651.686506	0.750709	0.005170	2.436830
113.436928	1662.666695	0.755713	0.005057	2.443559
113.995784	1673.660355	0.760718	0.004949	2.450271
114.813850	1684.692904	0.765723	0.004793	2.457039
115.217937	1695.761738	0.770728	0.004715	2.463729
115.849975	1706.723360	0.775732	0.004593	2.470381
116.420658	1717.785204	0.780737	0.004484	2.477063
117.181209	1728.765509	0.785742	0.004338	2.483715
117.723851	1739.851271	0.790747	0.004234	2.490369
118.118550	1750.867320	0.795751	0.004157	2.496936
118.371596	1761.908715	0.800756	0.004107	2.503474
118.992363	1772.864491	0.805761	0.003987	2.510014
119.609207	1783.903946	0.810765	0.003869	2.516585
120.309577	1794.946346	0.815770	0.003735	2.523156
120.753383	1805.964019	0.820775	0.003649	2.529647
121.123625	1817.002366	0.825780	0.003576	2.536120
121.438689	1828.035417	0.830784	0.003515	2.542563
121.717341	1839.037984	0.835789	0.003460	2.548965
122.045478	1850.066217	0.840794	0.003395	2.555374
122.887416	1861.039702	0.845799	0.003235	2.561832
123.241089	1872.128931	0.850803	0.003166	2.568249
123.796970	1883.151503	0.855808	0.003058	2.574649
124.200481	1894.175584	0.860813	0.002980	2.581005
124.596525	1905.150631	0.865817	0.002903	2.587317
125.040360	1916.202450	0.870822	0.002817	2.593666
125.651945	1927.176783	0.875827	0.002700	2.599986
126.012234	1938.234527	0.880832	0.002629	2.606291
126.405751	1949.279764	0.885836	0.002553	2.612580
127.005873	1960.232646	0.890841	0.002437	2.618840
127.348675	1971.305655	0.895846	0.002370	2.625105
127.865151	1982.300648	0.900850	0.002271	2.631343
128.158395	1993.361406	0.905855	0.002213	2.637563
128.759019	2004.342843	0.910860	0.002097	2.643778
128.990652	2015.404782	0.915865	0.002051	2.649958
129.453137	2026.400506	0.920869	0.001962	2.656128
129.779740	2037.425996	0.925874	0.001898	2.662276
130.233485	2048.408108	0.930879	0.001810	2.668408
130.906012	2059.423407	0.935884	0.001681	2.674582
131.203720	2070.470484	0.940888	0.001622	2.680694
131.573416	2081.486676	0.945893	0.001550	2.686787
131.945364	2092.508191	0.950898	0.001478	2.692870
132.283448	2103.521651	0.955902	0.001412	2.698929
132.683999	2114.533096	0.960907	0.001334	2.704984
133.325281	2125.550236	0.965912	0.001211	2.711069
133.738596	2136.574744	0.970917	0.001130	2.717106
133.941782	2147.629146	0.975921	0.001089	2.723110
134.315206	2158.618084	0.980926	0.001017	2.729094
134.775285	2169.640997	0.985931	0.000928	2.735097
135.087664	2180.666953	0.990936	0.000866	2.741064
135.683357	2191.661691	0.995940	0.000752	2.747049
136.044890	2202.695491	1.000945	0.000681	2.753003
136.654301	2213.696498	1.005950	0.000564	2.758967
137.117074	2224.742711	1.010954	0.000475	2.764918
137.404514	2235.771544	1.015959	0.000418	2.770817
137.777537	2246.780977	1.020964	0.000345	2.776708
138.139056	2257.815484	1.025969	0.000275	2.782598
138.438241	2268.819168	1.030973	0.000216	2.788448
138.883110	2279.822324	1.035978	0.000130	2.794310
139.257519	2290.881789	1.040983	0.000057	2.800178
139.477700	2301.892393	1.045988	0.000012	2.805982
139.668356	2312.925682	1.050992	-0.000026	2.811782
140.163238	2323.903103	1.055997	-0.000122	2.817589
140.499311	2334.938638	1.061002	-0.000187	2.823389
140.919139	2345.942451	1.066006	-0.000269	2.829174
141.454475	2356.967889	1.071011	-0.000372	2.834977
142.044619	2367.980893	1.076016	-0.000486	2.840770
142.391923	2379.015895	1.081021	-0.000553	2.846524
143.007657	2390.037456	1.086025	-0.000672	2.852302
143.234809	2401.047644	1.091030	-0.000717	2.858001
143.635292	2412.073542	1.096035	-0.000795	2.863723
143.945451	2423.105255	1.101039	-0.000856	2.869423
144.037505	2434.131627	1.106044	-0.000876	2.875075
144.338575	2445.116176	1.111049	-0.000935	2.880726
145.017513	2456.136725	1.116054	-0.001065	2.886444
145.321721	2467.210043	1.121058	-0.001125	2.892119
145.757361	2478.168454	1.126063	-0.001209	2.897745
145.931656	2489.210805	1.131068	-0.001245	2.903362
146.403139	2500.226502	1.136073	-0.001336	2.909000
146.662075	2511.249149	1.141077	-0.001387	2.914598
146.985363	2522.275505	1.146082	-0.001451	2.920197
147.456338	2533.269633	1.151087	-0.001542	2.925792
148.018214	2544.286942	1.156091	-0.001650	2.931401
148.298998	2555.299197	1.161096	-0.001705	2.936954
149.086391	2566.306757	1.166101	-0.001856	2.942571
149.447359	2577.357427	1.171106	-0.001926	2.948135
149.936858	2588.353299	1.176110	-0.002021	2.953679
150.118135	2599.414829	1.181115	-0.002058	2.959200
150.466409	2610.396800	1.186120	-0.002126	2.964695
150.698841	2621.461157	1.191125	-0.002172	2.970204
151.133794	2632.435059	1.196129	-0.002256	2.975688
151.498387	2643.462381	1.201134	-0.002328	2.981178
152.259012	2654.448015	1.206139	-0.002473	2.986696
152.512440	2665.520037	1.211143	-0.002523	2.992170
152.812901	2676.512388	1.216148	-0.002582	2.997603
152.909225	2687.560949	1.221153	-0.002603	3.003023
153.408119	2698.542378	1.226158	-0.002700	3.008460
153.889665	2709.560984	1.231162	-0.002793	3.013902
154.407566	2720.582069	1.236167	-0.002893	3.019341
154.678189	2731.628314	1.241172	-0.002946	3.024746
155.026488	2742.628163	1.246177	-0.003014	3.030130
155.244954	2753.667475	1.251181	-0.003058	3.035505
155.650134	2764.658453	1.256186	-0.003137	3.040874
155.968462	2775.692024	1.261191	-0.003199	3.046241
156.428565	2786.692693	1.266195	-0.003288	3.051604
156.608957	2797.720587	1.271200	-0.003325	3.056930
157.074153	2808.710392	1.276205	-0.003415	3.062268
157.359908	2819.772661	1.281210	-0.003471	3.067607
157.634927	2830.775358	1.286214	-0.003525	3.072906
158.066138	2841.784980	1.291219	-0.003609	3.078222
158.520561	2852.799998	1.296224	-0.003697	3.083534
158.968510	2863.830514	1.301228	-0.003784	3.088843
159.279057	2874.828416	1.306233	-0.003845	3.094109
159.571640	2885.876418	1.311238	-0.003903	3.099386
160.140453	2896.849985	1.316243	-0.004012	3.104658
160.672025	2907.908068	1.321247	-0.004114	3.109955
160.978519	2918.911540	1.326252	-0.004175	3.115186
161.372819	2929.929848	1.331257	-0.004251	3.120428
161.836263	2940.940086	1.336262	-0.004341	3.125666
162.149314	2951.995577	1.341266	-0.004403	3.130896
162.560020	2962.955782	1.346271	-0.004482	3.136086
162.892977	2973.998184	1.351276	-0.004548	3.141295
163.529684	2984.982843	1.356280	-0.004670	3.146510
163.614799	2996.077061	1.361285	-0.004688	3.151692
163.831681	3007.030826	1.366290	-0.004732	3.156818
164.346559	3018.079548	1.371295	-0.004831	3.162020
164.985367	3029.058227	1.376299	-0.004954	3.167198
165.240818	3040.128368	1.381304	-0.005004	3.172358
165.530838	3051.130331	1.386309	-0.005062	3.177483
165.784450	3062.134566	1.391314	-0.005112	3.182595
166.015515	3073.178248	1.396318	-0.005158	3.187714
166.444766	3084.161209	1.401323	-0.005241	3.192823
166.819286	3095.198530	1.406328	-0.005314	3.197942
167.219391	3106.191301	1.411332	-0.005392	3.203036
167.722642	3117.219842	1.416337	-0.005489	3.208151
167.968484	3128.265908	1.421342	-0.005538	3.213232
168.210837	3139.256091	1.426347	-0.005586	3.218279
168.741721	3150.268790	1.431351	-0.005689	3.223367
169.057610	3161.294932	1.436356	-0.005751	3.228424
169.296799	3172.311297	1.441361	-0.005798	3.233458
169.481787	3183.343483	1.446366	-0.005836	3.238485
169.790574	3194.344913	1.451370	-0.005896	3.243506
170.242531	3205.350146	1.456375	-0.005984	3.248540
170.588554	3216.378450	1.461380	-0.006052	3.253562
171.062377	3227.378424	1.466384	-0.006143	3.258580
171.362000	3238.429858	1.471389	-0.006202	3.263591
171.839514	3249.423938	1.476394	-0.006294	3.268592
171.989536	3260.449728	1.481399	-0.006325	3.273557
172.523824	3271.456409	1.486403	-0.006428	3.278555
172.822673	3282.483446	1.491408	-0.006487	3.283524
173.171558	3293.505506	1.496413	-0.006555	3.288490
173.387611	3304.525707	1.501417	-0.006599	3.293431
173.841539	3315.511727	1.506422	-0.006686	3.298379
174.175766	3326.552294	1.511427	-0.006752	3.303328
174.552653	3337.556792	1.516432	-0.006825	3.308260
174.892268	3348.579512	1.521436	-0.006892	3.313187
175.222446	3359.607540	1.526441	-0.006957	3.318108
175.652509	3370.595658	1.531446	-0.007040	3.323017
176.190201	3381.630867	1.536451	-0.007144	3.327953
176.548675	3392.645768	1.541455	-0.007214	3.332850
176.844079	3403.655278	1.546460	-0.007272	3.337729
176.967316	3414.704924	1.551465	-0.007298	3.342597
177.328576	3425.691531	1.556469	-0.007368	3.347461
177.414899	3436.729880	1.561474	-0.007387	3.352305
177.832752	3447.723791	1.566479	-0.007468	3.357164
178.113424	3458.759753	1.571484	-0.007524	3.362018
178.572110	3469.745431	1.576488	-0.007612	3.366864
178.715714	3480.808579	1.581493	-0.007642	3.371699
179.055957	3491.774391	1.586498	-0.007709	3.376508
179.589645	3502.792641	1.591503	-0.007811	3.381356
180.181793	3513.814469	1.596507	-0.007925	3.386206
180.626338	3524.852812	1.601512	-0.008011	3.391038
180.914312	3535.868675	1.606517	-0.008068	3.395835
181.023924	3546.913254	1.611521	-0.008091	3.400616
181.369775	3557.864866	1.616526	-0.008159	3.405378
181.694050	3568.933230	1.621531	-0.008223	3.410181
182.075987	3579.925156	1.626536	-0.008297	3.414952
182.389568	3590.943811	1.631540	-0.008359	3.419719
182.584429	3601.982678	1.636545	-0.008398	3.424474
182.792522	3612.996912	1.641550	-0.008440	3.429213
183.154589	3623.980267	1.646555	-0.008510	3.433950
183.472354	3635.003110	1.651559	-0.008573	3.438693
183.821362	3646.019643	1.656564	-0.008641	3.443430
184.197839	3657.059507	1.661569	-0.008714	3.448174
184.248238	3668.054979	1.666573	-0.008726	3.452853
184.829426	3679.063351	1.671578	-0.008838	3.457595
185.273194	3690.060374	1.676583	-0.008924	3.462308
185.710413	3701.115196	1.681588	-0.009009	3.467039
186.160999	3712.104264	1.686592	-0.009096	3.471737
186.399745	3723.159399	1.691597	-0.009144	3.476432
186.715201	3734.150869	1.696602	-0.009206	3.481102
187.073669	3745.182717	1.701606	-0.009276	3.485788
187.487730	3756.161036	1.706611	-0.009356	3.490452
187.895596	3767.202995	1.711616	-0.009435	3.495135
188.173974	3778.213560	1.716621	-0.009490	3.499784
188.423102	3789.247008	1.721625	-0.009540	3.504433
188.654463	3800.265821	1.726630	-0.009586	3.509068
189.160295	3811.249376	1.731635	-0.009684	3.513713
189.694118	3822.295752	1.736640	-0.009787	3.518381
189.850201	3833.303924	1.741644	-0.009819	3.522984
190.169461	3844.328915	1.746649	-0.009881	3.527606
190.182207	3855.356268	1.751654	-0.009886	3.532189
190.619300	3866.311637	1.756658	-0.009971	3.536784
191.252266	3877.358338	1.761663	-0.010093	3.541432
191.588036	3888.378922	1.766668	-0.010158	3.546030
191.806572	3899.392104	1.771673	-0.010202	3.550606
192.004432	3910.419217	1.776677	-0.010242	3.555180
192.262654	3921.438387	1.781682	-0.010293	3.559751
192.805464	3932.426477	1.786687	-0.010398	3.564334
193.130846	3943.466393	1.791692	-0.010461	3.568909
193.425991	3954.471074	1.796696	-0.010519	3.573461
193.743370	3965.509991	1.801701	-0.010582	3.578022
193.903790	3976.495517	1.806706	-0.010615	3.582539
194.379596	3987.517539	1.811710	-0.010707	3.587100
194.810948	3998.509324	1.816715	-0.010790	3.591637
195.255567	4009.563160	1.821720	-0.010876	3.596196
195.415686	4020.589287	1.826725	-0.010909	3.600706
195.537457	4031.600463	1.831729	-0.010935	3.605201
195.932673	4042.584180	1.836734	-0.011012	3.609708
196.232147	4053.627462	1.841739	-0.011071	3.614223
196.506930	4064.634370	1.846744	-0.011125	3.618716
196.890085	4075.673496	1.851748	-0.011199	3.623227
197.154861	4086.669289	1.856753	-0.011252	3.627702
197.489400	4097.704503	1.861758	-0.011317	3.632195
197.836021	4108.739645	1.866762	-0.011385	3.636684
198.035865	4119.762406	1.871767	-0.011425	3.641147
198.476687	4130.778711	1.876772	-0.011511	3.645627
198.404159	4141.805243	1.881777	-0.011500	3.650051
198.749269	4152.784076	1.886781	-0.011567	3.654495
199.102137	4163.818948	1.891786	-0.011636	3.658957
199.727834	4174.808357	1.896791	-0.011756	3.663423
200.205987	4185.884073	1.901795	-0.011849	3.667903
200.376161	4196.862963	1.906800	-0.011884	3.672307
200.549443	4207.895082	1.911805	-0.011919	3.676727
200.875328	4218.888924	1.916810	-0.011983	3.681142
201.274352	4229.920295	1.921814	-0.012060	3.685574
201.901991	4240.896154	1.926819	-0.012181	3.690003
202.148519	4251.963956	1.931824	-0.012230	3.694423
202.495197	4262.946661	1.936829	-0.012298	3.698814
202.649652	4274.006967	1.941833	-0.012329	3.703211
203.075345	4284.987115	1.946838	-0.012412	3.707599
203.301044	4296.014422	1.951843	-0.012457	3.711980
203.731927	4307.007247	1.956847	-0.012541	3.716363
204.053577	4318.057594	1.961852	-0.012604	3.720752
204.138136	4329.055734	1.966857	-0.012622	3.725092
204.224265	4340.080665	1.971862	-0.012641	3.729436
204.572497	4351.048419	1.976866	-0.012709	3.733780
205.033033	4362.102168	1.981871	-0.012798	3.738164
205.413281	4373.113479	1.986876	-0.012872	3.742518
205.660607	4384.162601	1.991881	-0.012922	3.746868
