Wed Nov 23 18:47:16 2022

Number of Points = 2200
Depth (nm)	Load (µN)	Time (s)	Depth (V)	Load (V)
-0.894049	1.376348	0.000000	0.044259	0.928492
0.000000	7.404486	0.005005	0.044090	0.938558
1.225398	16.299133	0.010009	0.043858	0.953162
2.310705	26.842161	0.015014	0.043652	0.969979
3.620142	37.832872	0.020019	0.043403	0.987303
4.361553	49.049852	0.025024	0.043262	1.004351
5.342013	60.204056	0.030028	0.043075	1.021150
5.945686	71.442963	0.035033	0.042959	1.037599
6.701388	82.586482	0.040038	0.042814	1.053736
7.131835	93.811063	0.045043	0.042731	1.069575
7.705183	104.941531	0.050047	0.042620	1.085125
8.582100	115.994002	0.055052	0.042453	1.100502
9.224769	127.193513	0.060057	0.042330	1.115746
14.005508	137.226935	0.065061	0.041430	1.131250
16.981575	148.930364	0.070066	0.040869	1.147836
20.981440	159.727621	0.075071	0.040116	1.163511
22.331164	171.414956	0.080076	0.039859	1.178871
23.648160	182.627258	0.085080	0.039610	1.193430
24.883163	193.749305	0.090085	0.039375	1.207666
26.276296	204.869399	0.095090	0.039111	1.221802
27.559207	215.985361	0.100094	0.038867	1.235722
28.516413	227.159070	0.105099	0.038685	1.249414
29.771844	238.206549	0.110104	0.038447	1.262937
30.861769	249.318461	0.115109	0.038239	1.276320
31.848397	260.428429	0.120113	0.038052	1.289519
33.030537	271.548327	0.125118	0.037827	1.302675
34.245949	282.593318	0.130123	0.037596	1.315628
34.997560	293.743456	0.135128	0.037452	1.328383
36.099730	304.766818	0.140132	0.037243	1.341017
36.947330	315.891893	0.145137	0.037081	1.353543
37.937298	326.933756	0.150142	0.036893	1.365919
38.817079	338.051579	0.155146	0.036725	1.378222
39.890115	349.077874	0.160151	0.036521	1.390393
40.533314	360.231176	0.165156	0.036397	1.402428
41.517695	371.250772	0.170161	0.036210	1.414348
42.360733	382.326015	0.175165	0.036049	1.426174
43.390783	393.372365	0.180170	0.035853	1.437941
44.302720	404.462554	0.185175	0.035679	1.449613
45.239286	415.516467	0.190180	0.035500	1.461164
46.156490	426.585757	0.195184	0.035326	1.472633
47.122025	437.653365	0.200189	0.035142	1.484027
48.072263	448.688956	0.205194	0.034961	1.495298
48.858747	459.812049	0.210198	0.034810	1.506511
49.755774	470.823763	0.215203	0.034639	1.517572
50.877326	481.876322	0.220208	0.034426	1.528669
51.402275	493.010504	0.225213	0.034325	1.539558
52.185711	504.039231	0.230217	0.034175	1.550359
53.142599	515.030367	0.235222	0.033993	1.561108
54.229046	526.108730	0.240227	0.033786	1.571908
54.898589	537.195313	0.245232	0.033658	1.582502
55.889010	548.218795	0.250236	0.033469	1.593074
56.797719	559.263104	0.255241	0.033296	1.603567
57.818223	570.312657	0.260246	0.033102	1.614033
58.162782	581.492478	0.265250	0.033034	1.624331
59.151025	592.422469	0.270255	0.032846	1.634545
59.932268	603.487834	0.275260	0.032697	1.644750
60.655032	614.561690	0.280265	0.032559	1.654881
61.239966	625.600166	0.285269	0.032446	1.664876
62.354113	636.599688	0.290274	0.032234	1.674941
62.912473	647.720688	0.295279	0.032127	1.684880
63.516922	658.776245	0.300283	0.032011	1.694717
64.156983	669.784857	0.305288	0.031888	1.704468
64.928342	680.844323	0.310293	0.031740	1.714246
65.308714	691.923917	0.315298	0.031666	1.723868
66.441044	702.827129	0.320302	0.031451	1.733511
67.482912	713.939825	0.325307	0.031253	1.743252
68.244864	724.986668	0.330312	0.031107	1.752799
68.865723	736.076643	0.335317	0.030988	1.762288
69.526126	747.095974	0.340321	0.030861	1.771679
70.265949	758.127006	0.345326	0.030720	1.781053
71.161333	769.143098	0.350331	0.030549	1.790411
71.836300	780.218013	0.355335	0.030420	1.799704
72.709550	791.221986	0.360340	0.030253	1.808948
73.485641	802.290960	0.365345	0.030105	1.818169
74.132849	813.331477	0.370350	0.029980	1.827285
74.911427	824.367569	0.375354	0.029832	1.836388
75.391192	835.433350	0.380359	0.029739	1.845386
76.117049	846.438672	0.385364	0.029600	1.854361
76.892131	857.484021	0.390369	0.029452	1.863337
77.515380	868.526246	0.395373	0.029332	1.872225
78.447097	879.522048	0.400378	0.029155	1.881120
79.085510	890.607586	0.405383	0.029032	1.889962
79.906219	901.621762	0.410387	0.028875	1.898757
80.330571	912.687973	0.415392	0.028793	1.907444
81.064283	923.710094	0.420397	0.028652	1.916141
81.689340	934.751561	0.425402	0.028532	1.924784
82.147064	945.803442	0.430406	0.028444	1.933351
82.860485	956.796599	0.435411	0.028307	1.941904
83.465274	967.860269	0.440416	0.028191	1.950443
83.984385	978.896789	0.445421	0.028091	1.958903
84.805211	989.881994	0.450425	0.027934	1.967365
85.496310	1000.956054	0.455430	0.027802	1.975823
86.196262	1011.940891	0.460435	0.027668	1.984182
86.836812	1023.022291	0.465439	0.027545	1.992561
87.308479	1034.088698	0.470444	0.027454	2.000851
87.795698	1045.100266	0.475449	0.027359	2.009070
88.403417	1056.140414	0.480454	0.027243	2.017306
89.135210	1067.139242	0.485458	0.027103	2.025510
89.926124	1078.155665	0.490463	0.026951	2.033708
90.438394	1089.234198	0.495468	0.026853	2.041849
90.866696	1100.271938	0.500472	0.026769	2.049907
91.369489	1111.302739	0.505477	0.026672	2.057946
92.101919	1122.281782	0.510482	0.026532	2.065973
92.958265	1133.320133	0.515487	0.026369	2.074041
93.369376	1144.382216	0.520491	0.026289	2.081987
94.003876	1155.409097	0.525496	0.026167	2.089931
94.624024	1166.427404	0.530501	0.026048	2.097835
95.266173	1177.459554	0.535506	0.025925	2.105724
96.172794	1188.451609	0.540510	0.025752	2.113619
96.825163	1199.521559	0.545515	0.025627	2.121478
97.235320	1210.577230	0.550520	0.025547	2.129240
97.701857	1221.590814	0.555524	0.025457	2.136958
98.256039	1232.607389	0.560529	0.025350	2.144671
99.084409	1243.608584	0.565534	0.025192	2.152410
99.782440	1254.649764	0.570539	0.025058	2.160117
100.599229	1265.660445	0.575543	0.024902	2.167803
101.232479	1276.737845	0.580548	0.024781	2.175465
101.684200	1287.749155	0.585553	0.024693	2.183014
102.213585	1298.782681	0.590558	0.024591	2.190569
102.691866	1309.830353	0.595562	0.024499	2.198096
103.146437	1320.838761	0.600567	0.024411	2.205565
103.675370	1331.879939	0.605572	0.024309	2.213047
104.230745	1342.868890	0.610576	0.024202	2.220476
104.770533	1353.919035	0.615581	0.024098	2.227916
105.608311	1364.931549	0.620586	0.023938	2.235373
106.100728	1375.965191	0.625591	0.023843	2.242742
106.602514	1387.010188	0.630595	0.023746	2.250096
107.068482	1398.050142	0.635600	0.023656	2.257415
107.320836	1409.096058	0.640605	0.023606	2.264668
107.808522	1420.060314	0.645610	0.023511	2.271895
108.982692	1431.033379	0.650614	0.023288	2.279254
109.346069	1442.147586	0.655619	0.023217	2.286504
109.794699	1453.166184	0.660624	0.023130	2.293689
110.378188	1464.166815	0.665628	0.023018	2.300868
111.067089	1475.183054	0.670633	0.022886	2.308057
111.532556	1486.248572	0.675638	0.022796	2.315208
111.863265	1497.275534	0.680643	0.022731	2.322283
112.154141	1508.316097	0.685647	0.022674	2.329337
112.597263	1519.322719	0.690652	0.022588	2.336380
113.103838	1530.324340	0.695657	0.022490	2.343412
113.949653	1541.305141	0.700661	0.022329	2.350480
114.440363	1552.390008	0.705666	0.022234	2.357518
114.883111	1563.424434	0.710671	0.022148	2.364494
115.104607	1574.469818	0.715676	0.022104	2.371410
115.609203	1585.424532	0.720680	0.022007	2.378308
116.377477	1596.447653	0.725685	0.021860	2.385282
116.920834	1607.511492	0.730690	0.021755	2.392214
117.207035	1618.548602	0.735695	0.021699	2.399058
117.875598	1629.531053	0.740699	0.021570	2.405926
118.100502	1640.614646	0.745704	0.021526	2.412747
118.706197	1651.572742	0.750709	0.021409	2.419548
118.933561	1662.643385	0.755713	0.021364	2.426323
119.568219	1673.639277	0.760718	0.021242	2.433115
120.168394	1684.652560	0.765723	0.021127	2.439891
120.593992	1695.700615	0.770728	0.021044	2.446635
120.903887	1706.739655	0.775732	0.020983	2.453331
121.591427	1717.703312	0.780737	0.020851	2.460039
122.234242	1728.733184	0.785742	0.020728	2.466758
122.693729	1739.819064	0.790747	0.020639	2.473457
122.978299	1750.811866	0.795751	0.020583	2.480049
123.753149	1761.786603	0.800756	0.020435	2.486707
124.386354	1772.868666	0.805761	0.020313	2.493383
124.721096	1783.883667	0.810765	0.020248	2.499944
125.155005	1794.897464	0.815770	0.020164	2.506506
125.690331	1805.920080	0.820775	0.020060	2.513075
126.173741	1816.942684	0.825780	0.019967	2.519617
126.528240	1827.967867	0.830784	0.019898	2.526120
126.990209	1839.004885	0.835789	0.019808	2.532632
127.517420	1850.010565	0.840794	0.019707	2.539122
127.916841	1861.026829	0.845799	0.019629	2.545577
128.442240	1872.066376	0.850803	0.019528	2.552053
128.825043	1883.077116	0.855808	0.019453	2.558469
129.267521	1894.098428	0.860813	0.019367	2.564886
129.753845	1905.119391	0.865817	0.019273	2.571294
130.139473	1916.234833	0.870822	0.019198	2.577722
130.706975	1927.126655	0.875827	0.019089	2.584040
131.477269	1938.155152	0.880832	0.018942	2.590457
131.776350	1949.223197	0.885836	0.018883	2.596795
132.324502	1960.219767	0.890841	0.018777	2.603121
132.838724	1971.233137	0.895846	0.018678	2.609436
133.259092	1982.278979	0.900850	0.018597	2.615736
133.586788	1993.293548	0.905855	0.018532	2.621988
133.974076	2004.309117	0.910860	0.018457	2.628235
134.566344	2015.330941	0.915865	0.018343	2.634507
134.944457	2026.368916	0.920869	0.018269	2.640735
135.248960	2037.391252	0.925874	0.018210	2.646927
135.783528	2048.388201	0.930879	0.018107	2.653131
136.106155	2059.397266	0.935884	0.018043	2.659289
136.777308	2070.387623	0.940888	0.017915	2.665484
137.264043	2081.436385	0.945893	0.017821	2.671665
137.878122	2092.439164	0.950898	0.017703	2.677828
138.328230	2103.460890	0.955902	0.017615	2.683958
138.765495	2114.502778	0.960907	0.017531	2.690083
139.025540	2125.542439	0.965912	0.017479	2.696162
139.515538	2136.527196	0.970917	0.017384	2.702237
139.794455	2147.572979	0.975921	0.017329	2.708295
140.121875	2158.584798	0.980926	0.017265	2.714330
140.343508	2169.610484	0.985931	0.017221	2.720340
140.931063	2180.603376	0.990936	0.017108	2.726382
141.399408	2191.649663	0.995940	0.017017	2.732419
141.856767	2202.663449	1.000945	0.016929	2.738423
142.185538	2213.662068	1.005950	0.016864	2.744384
142.693175	2224.710540	1.010954	0.016766	2.750388
143.064957	2235.714746	1.015959	0.016694	2.756333
143.543669	2246.751274	1.020964	0.016601	2.762300
144.051359	2257.740371	1.025969	0.016503	2.768234
144.469496	2268.772872	1.030973	0.016422	2.774163
144.778487	2279.807590	1.035978	0.016361	2.780062
145.077711	2290.830774	1.040983	0.016303	2.785941
145.465920	2301.862888	1.045988	0.016227	2.791827
145.719334	2312.849209	1.050992	0.016177	2.797654
146.458405	2323.843711	1.055997	0.016035	2.803553
146.730461	2334.937252	1.061002	0.015982	2.809415
147.076855	2345.918324	1.066006	0.015914	2.815218
147.468524	2356.937744	1.071011	0.015838	2.821036
148.028719	2367.948497	1.076016	0.015730	2.826865
148.602722	2378.966965	1.081021	0.015619	2.832688
148.804065	2389.986923	1.086025	0.015579	2.838439
149.163464	2401.041519	1.091030	0.015509	2.844222
149.535891	2412.034612	1.096035	0.015436	2.849964
149.738783	2423.072393	1.101039	0.015395	2.855690
150.214418	2434.076951	1.106044	0.015303	2.861431
150.630795	2445.088386	1.111049	0.015222	2.867154
151.082675	2456.102246	1.116054	0.015135	2.872873
151.553360	2467.123646	1.121058	0.015044	2.878587
152.059836	2478.136311	1.126063	0.014946	2.884290
152.508780	2489.173720	1.131068	0.014859	2.889986
152.951897	2500.194065	1.136073	0.014773	2.895661
153.352650	2511.215687	1.141077	0.014695	2.901319
153.761785	2522.208620	1.146082	0.014616	2.906952
154.102448	2533.252965	1.151087	0.014549	2.912590
154.370516	2544.265148	1.156091	0.014496	2.918189
154.602835	2555.299790	1.161096	0.014450	2.923783
154.992497	2566.298503	1.166101	0.014374	2.929373
155.419656	2577.296037	1.171106	0.014291	2.934957
155.853850	2588.340323	1.176110	0.014207	2.940555
156.282135	2599.361073	1.181115	0.014124	2.946129
156.622311	2610.384887	1.186120	0.014057	2.951681
156.912251	2621.386124	1.191125	0.014000	2.957203
157.312823	2632.396692	1.196129	0.013922	2.962737
157.808854	2643.439044	1.201134	0.013826	2.968290
158.109368	2654.455854	1.206139	0.013767	2.973791
158.484330	2665.468349	1.211143	0.013694	2.979290
158.730441	2676.487372	1.216148	0.013645	2.984763
159.035734	2687.527429	1.221153	0.013585	2.990245
159.409939	2698.502458	1.226158	0.013512	2.995696
159.859520	2709.559877	1.231162	0.013425	3.001188
160.327065	2720.528010	1.236167	0.013335	3.006628
160.463248	2731.624560	1.241172	0.013307	3.012073
160.879572	2742.563633	1.246177	0.013226	3.017472
161.254071	2753.616798	1.251181	0.013153	3.022911
161.753384	2764.634842	1.256186	0.013056	3.028341
162.102737	2775.648645	1.261191	0.012988	3.033738
162.480885	2786.670599	1.266195	0.012914	3.039133
162.737231	2797.675994	1.271200	0.012863	3.044492
163.069228	2808.750945	1.276205	0.012798	3.049887
163.344181	2819.702754	1.281210	0.012744	3.055204
163.640091	2830.756032	1.286214	0.012686	3.060564
164.003725	2841.748311	1.291219	0.012615	3.065895
164.361662	2852.768989	1.296224	0.012545	3.071229
164.615524	2863.809497	1.301228	0.012495	3.076548
165.078837	2874.788821	1.306233	0.012405	3.081859
165.729868	2885.803263	1.311238	0.012280	3.087204
166.332638	2896.835416	1.316243	0.012164	3.092541
166.781429	2907.855335	1.321247	0.012077	3.097841
167.215912	2918.877776	1.326252	0.011993	3.103132
167.557201	2929.925295	1.331257	0.011926	3.108412
168.005593	2940.882990	1.336262	0.011839	3.113655
168.396596	2951.949404	1.341266	0.011763	3.118933
168.712703	2962.945672	1.346271	0.011701	3.124158
169.139605	2973.979850	1.351276	0.011618	3.129408
169.530788	2984.974334	1.356280	0.011542	3.134625
169.994943	2996.019408	1.361285	0.011453	3.139867
170.297186	3007.015519	1.366290	0.011393	3.145055
170.735463	3018.049022	1.371295	0.011308	3.150271
171.106230	3029.059452	1.376299	0.011236	3.155458
171.604954	3040.060967	1.381304	0.011140	3.160649
172.357136	3051.049249	1.386309	0.010996	3.165861
172.700476	3062.132905	1.391314	0.010928	3.171052
173.026207	3073.115495	1.396318	0.010865	3.176185
173.267270	3084.162517	1.401323	0.010817	3.181329
173.492868	3095.162508	1.406328	0.010772	3.186440
173.968781	3106.172527	1.411332	0.010680	3.191581
174.246828	3117.203409	1.416337	0.010625	3.196698
174.779244	3128.204812	1.421342	0.010522	3.201826
175.106425	3139.241125	1.426347	0.010458	3.206934
175.297393	3150.257163	1.431351	0.010419	3.212007
175.607707	3161.235048	1.436356	0.010358	3.217070
176.008668	3172.290490	1.441361	0.010280	3.222173
176.445131	3183.295365	1.446366	0.010196	3.227249
176.864857	3194.315304	1.451370	0.010114	3.232322
177.405236	3205.316089	1.456375	0.010010	3.237393
177.649981	3216.355937	1.461380	0.009962	3.242436
178.044012	3227.363308	1.466384	0.009885	3.247476
178.413929	3238.382693	1.471389	0.009813	3.252510
178.801333	3249.403434	1.476394	0.009737	3.257538
179.211705	3260.414912	1.481399	0.009658	3.262558
179.328218	3271.444867	1.486403	0.009633	3.267541
179.667214	3282.457161	1.491408	0.009567	3.272536
179.779640	3293.490990	1.496413	0.009543	3.277505
180.051284	3304.497505	1.501417	0.009489	3.282474
180.444984	3315.495148	1.506422	0.009413	3.287447
180.764925	3326.516229	1.511427	0.009350	3.292413
181.222743	3337.526833	1.516432	0.009261	3.297385
181.452642	3348.567601	1.521436	0.009215	3.302334
181.900368	3359.538549	1.526441	0.009129	3.307271
182.415222	3370.590233	1.531446	0.009029	3.312246
182.708886	3381.598650	1.536451	0.008971	3.317166
183.215981	3392.602607	1.541455	0.008874	3.322103
183.559631	3403.645782	1.546460	0.008806	3.327030
183.733368	3414.673160	1.551465	0.008771	3.331921
184.525889	3425.609061	1.556469	0.008620	3.336842
185.175523	3436.693134	1.561474	0.008495	3.341803
185.635519	3447.685862	1.566479	0.008406	3.346693
185.974486	3458.724298	1.571484	0.008340	3.351580
186.226185	3469.742488	1.576488	0.008290	3.356441
186.500013	3480.763527	1.581493	0.008236	3.361299
186.806263	3491.774499	1.586498	0.008175	3.366149
187.156891	3502.790611	1.591503	0.008107	3.370999
187.637973	3513.779129	1.596507	0.008014	3.375847
187.854793	3524.821432	1.601512	0.007970	3.380678
188.225684	3535.833691	1.606517	0.007898	3.385509
188.637739	3546.860594	1.611521	0.007818	3.390343
189.088256	3557.840967	1.616526	0.007731	3.395156
189.427591	3568.898748	1.621531	0.007664	3.399981
189.822715	3579.891193	1.626536	0.007588	3.404778
190.375973	3590.923500	1.631540	0.007481	3.409604
190.416989	3601.944247	1.636545	0.007471	3.414357
190.793630	3612.945817	1.641550	0.007397	3.419136
191.329928	3623.958027	1.646555	0.007294	3.423931
191.875434	3634.989460	1.651559	0.007189	3.428728
192.043473	3645.987714	1.656564	0.007154	3.433460
192.448997	3657.023847	1.661569	0.007076	3.438229
192.741327	3668.011235	1.666573	0.007018	3.442958
193.093908	3679.056659	1.671578	0.006949	3.447712
193.437722	3690.059223	1.676583	0.006882	3.452440
193.732102	3701.092310	1.681588	0.006824	3.457168
194.084842	3712.065867	1.686592	0.006755	3.461872
194.496936	3723.134794	1.691597	0.006675	3.466617
194.722029	3734.121051	1.696602	0.006630	3.471298
195.212355	3745.130664	1.701606	0.006535	3.476013
195.599401	3756.151520	1.706611	0.006460	3.480715
196.074924	3767.184104	1.711616	0.006368	3.485425
196.442263	3778.166812	1.716621	0.006296	3.490096
196.766027	3789.228472	1.721625	0.006233	3.494788
197.093437	3800.218820	1.726630	0.006169	3.499445
197.343411	3811.263133	1.731635	0.006119	3.504109
197.595656	3822.266619	1.736640	0.006069	3.508750
197.818178	3833.295252	1.741644	0.006025	3.513391
198.166479	3844.281259	1.746649	0.005956	3.518023
198.506422	3855.309037	1.751654	0.005890	3.522666
199.072967	3866.312579	1.756658	0.005781	3.527318
199.257977	3877.352219	1.761663	0.005743	3.531935
199.605443	3888.338380	1.766668	0.005676	3.536543
199.977896	3899.361007	1.771673	0.005603	3.541162
200.522657	3910.368313	1.776677	0.005498	3.545788
200.734107	3921.424794	1.781682	0.005456	3.550391
201.057844	3932.411118	1.786687	0.005392	3.554972
201.519414	3943.414805	1.791692	0.005303	3.559569
201.885735	3954.460327	1.796696	0.005231	3.564167
202.222467	3965.468519	1.801701	0.005165	3.568740
202.753505	3976.467734	1.806706	0.005063	3.573325
203.023829	3987.514357	1.811710	0.005010	3.577894
203.357302	3998.498275	1.816715	0.004944	3.582439
203.794550	4009.531119	1.821720	0.004859	3.587010
203.917304	4020.547432	1.826725	0.004834	3.591533
204.342130	4031.564174	1.831729	0.004751	3.596084
204.632356	4042.563141	1.836734	0.004694	3.600608
204.964369	4053.626328	1.841739	0.004629	3.605156
205.180239	4064.595941	1.846744	0.004586	3.609647
205.506744	4075.636716	1.851748	0.004522	3.614174
205.910466	4086.624181	1.856753	0.004443	3.618682
206.235048	4097.703718	1.861758	0.004380	3.623213
206.680833	4108.714362	1.866762	0.004293	3.627723
207.207555	4119.706838	1.871767	0.004192	3.632229
207.576668	4130.751338	1.876772	0.004120	3.636734
207.771204	4141.765547	1.881777	0.004081	3.641202
208.079615	4152.793564	1.886781	0.004020	3.645682
208.329099	4163.793592	1.891786	0.003970	3.650139
208.877593	4174.798289	1.896791	0.003865	3.654624
209.236714	4185.835029	1.901795	0.003795	3.659096
209.589594	4196.831185	1.906800	0.003726	3.663546
209.855959	4207.880926	1.911805	0.003673	3.668003
210.208939	4218.881790	1.916810	0.003604	3.672443
210.488853	4229.906082	1.921814	0.003549	3.676880
210.789087	4240.886200	1.926819	0.003490	3.681296
211.059286	4251.951076	1.931824	0.003436	3.685738
211.371702	4262.926747	1.936829	0.003375	3.690143
211.625360	4273.952361	1.941833	0.003325	3.694556
212.160191	4284.933715	1.946838	0.003222	3.698975
212.399455	4295.994720	1.951843	0.003174	3.703390
212.842011	4307.004372	1.956847	0.003088	3.707801
212.848243	4318.051893	1.961852	0.003084	3.712176
213.337697	4329.008199	1.966857	0.002990	3.716560
213.686717	4340.048332	1.971862	0.002921	3.720957
214.108110	4351.033976	1.976866	0.002840	3.725334
214.466584	4362.088051	1.981871	0.002770	3.729727
214.728540	4373.082835	1.986876	0.002718	3.734082
214.909074	4384.128413	1.991881	0.002681	3.738443
215.040187	4395.112308	1.996885	0.002654	3.742770
215.618511	4406.150579	2.001890	0.002543	3.747158
215.925351	4417.135893	2.006895	0.002482	3.751493
