Wed Nov 23 18:47:16 2022

Number of Points = 2200
Depth (nm)	Load (µN)	Time (s)	Depth (V)	Load (V)
-2.286545	1.173565	0.000000	0.061273	0.872756
0.000000	6.726024	0.005005	0.060842	0.883554
2.472390	15.418470	0.010009	0.060376	0.899520
4.729619	25.909856	0.015014	0.059950	0.917981
6.589765	36.992444	0.020019	0.059598	0.936778
8.662310	48.133655	0.025024	0.059207	0.955416
10.596942	59.352031	0.030028	0.058841	0.973736
12.488303	70.598231	0.035033	0.058483	0.991733
14.169162	81.826794	0.040038	0.058165	1.009267
16.002879	93.000077	0.045043	0.057818	1.026502
17.690527	104.186533	0.050047	0.057499	1.043393
19.214955	115.418255	0.055052	0.057210	1.059992
20.793394	126.560889	0.060057	0.056911	1.076239
22.117252	137.774342	0.065061	0.056660	1.092212
23.599133	148.900145	0.070066	0.056379	1.107914
25.074641	160.048241	0.075071	0.056100	1.123422
26.405583	171.193272	0.080076	0.055847	1.138645
27.468855	182.398446	0.085080	0.055645	1.153616
28.607900	193.511630	0.090085	0.055428	1.168314
29.922487	204.579944	0.095090	0.055179	1.182853
31.071552	215.724387	0.100094	0.054960	1.197233
32.289182	226.841309	0.105099	0.054729	1.211439
33.492066	237.942804	0.110104	0.054501	1.225454
34.584331	249.064662	0.115109	0.054293	1.239286
35.817564	260.158649	0.120113	0.054059	1.252992
36.839762	271.283966	0.125118	0.053864	1.266496
38.062967	282.313852	0.130123	0.053632	1.279831
39.308135	293.445194	0.135128	0.053396	1.293152
40.397766	304.593324	0.140132	0.053188	1.306292
41.573268	315.621010	0.145137	0.052965	1.319201
42.588200	326.716715	0.150142	0.052772	1.331994
43.929918	337.772155	0.155146	0.052518	1.344751
45.183453	348.828480	0.160151	0.052280	1.357354
46.373596	359.931935	0.165156	0.052053	1.369866
47.611084	371.012721	0.170161	0.051819	1.382258
48.829347	382.083598	0.175165	0.051587	1.394521
49.806430	393.196621	0.180170	0.051401	1.406629
50.808367	404.289247	0.185175	0.051210	1.418621
51.665916	415.360973	0.190180	0.051047	1.430437
52.590400	426.439336	0.195184	0.050870	1.442187
53.483571	437.507645	0.200189	0.050700	1.453819
54.380630	448.564641	0.205194	0.050529	1.465349
54.914603	459.706332	0.210198	0.050426	1.476742
55.683837	470.701226	0.215203	0.050279	1.487986
56.647396	481.739377	0.220208	0.050096	1.499256
57.613927	492.810628	0.225213	0.049911	1.510476
58.312226	503.915170	0.230217	0.049778	1.521551
58.925697	514.999064	0.235222	0.049660	1.532496
59.763513	525.993607	0.240227	0.049500	1.543354
60.720102	537.033869	0.245232	0.049318	1.554221
61.418833	548.106759	0.250236	0.049184	1.564955
62.427213	559.163178	0.255241	0.048992	1.575704
63.024574	570.240753	0.260246	0.048877	1.586262
63.804776	581.297245	0.265250	0.048728	1.596791
64.637571	592.294156	0.270255	0.048569	1.607213
65.711737	603.360777	0.275260	0.048365	1.617710
66.546880	614.429907	0.280265	0.048205	1.628064
67.511186	625.453390	0.285269	0.048021	1.638352
68.194177	636.535437	0.290274	0.047891	1.648538
69.019875	647.571486	0.295279	0.047733	1.658665
69.828909	658.626931	0.300283	0.047578	1.668743
70.659696	669.667954	0.305288	0.047420	1.678754
71.136341	680.773187	0.310293	0.047328	1.688651
71.828231	691.809689	0.315298	0.047195	1.698497
72.608349	702.791997	0.320302	0.047046	1.708266
73.477176	713.847504	0.325307	0.046880	1.718069
74.001733	724.934564	0.330312	0.046779	1.727738
74.629153	735.987579	0.335317	0.046659	1.737356
75.308025	746.979479	0.340321	0.046528	1.746884
76.062320	758.046494	0.345326	0.046384	1.756446
76.623249	769.092291	0.350331	0.046276	1.765880
77.620357	780.101167	0.355335	0.046086	1.775362
78.122622	791.177352	0.360340	0.045989	1.784704
78.966767	802.202015	0.365345	0.045828	1.794054
79.757946	813.214441	0.370350	0.045677	1.803329
80.419125	824.295746	0.375354	0.045550	1.812576
81.065776	835.334545	0.380359	0.045426	1.821737
81.910450	846.353020	0.385364	0.045265	1.830891
82.454011	857.419611	0.390369	0.045160	1.839954
83.026789	868.469960	0.395373	0.045050	1.848966
83.766174	879.468129	0.400378	0.044909	1.857940
84.663058	890.499763	0.405383	0.044738	1.866940
85.278219	901.564143	0.410387	0.044619	1.875846
85.763246	912.621986	0.415392	0.044526	1.884668
86.579789	923.601708	0.420397	0.044370	1.893477
87.274853	934.675512	0.425402	0.044236	1.902286
87.914729	945.706746	0.430406	0.044114	1.911006
88.496597	956.744464	0.435411	0.044002	1.919676
89.353805	967.739639	0.440416	0.043838	1.928347
90.121123	978.807773	0.445421	0.043691	1.937011
90.525724	989.858405	0.450425	0.043613	1.945528
91.284217	1000.876482	0.455430	0.043468	1.954074
91.936343	1011.903696	0.460435	0.043343	1.962563
92.511678	1022.966837	0.465439	0.043232	1.971022
92.978244	1034.006721	0.470444	0.043142	1.979399
93.663305	1045.017279	0.475449	0.043010	1.987774
94.214921	1056.067330	0.480454	0.042904	1.996110
95.022858	1067.067511	0.485458	0.042750	2.004439
95.626351	1078.128091	0.490463	0.042634	2.012726
96.152616	1089.181350	0.495468	0.042532	2.020953
96.847930	1100.163876	0.500472	0.042399	2.029138
97.559291	1111.220672	0.505477	0.042263	2.037348
98.157213	1122.247218	0.510482	0.042148	2.045474
98.711890	1133.282867	0.515487	0.042041	2.053564
99.467848	1144.291355	0.520491	0.041897	2.061652
99.972231	1155.358726	0.525496	0.041799	2.069689
100.536217	1166.372655	0.530501	0.041691	2.077670
101.068262	1177.439424	0.535506	0.041588	2.085651
101.657897	1188.421974	0.540510	0.041475	2.093555
102.319248	1199.471793	0.545515	0.041348	2.101494
102.994426	1210.465202	0.550520	0.041219	2.109367
103.632008	1221.521163	0.555524	0.041096	2.117245
104.073463	1232.559579	0.560529	0.041011	2.125034
104.887735	1243.566221	0.565534	0.040855	2.132861
105.403904	1254.626047	0.570539	0.040756	2.140626
105.988614	1265.637648	0.575543	0.040643	2.148345
106.524172	1276.661486	0.580548	0.040540	2.156034
107.091410	1287.713788	0.585553	0.040431	2.163721
107.516535	1298.735664	0.590558	0.040348	2.171328
108.280438	1309.751684	0.595562	0.040202	2.178982
108.836436	1320.771310	0.600567	0.040095	2.186563
109.533369	1331.807404	0.605572	0.039962	2.194162
110.135893	1342.814312	0.610576	0.039846	2.201693
110.701830	1353.877458	0.615581	0.039737	2.209227
111.249352	1364.887154	0.620586	0.039631	2.216696
111.734035	1375.950226	0.625591	0.039538	2.224161
112.338835	1386.916073	0.630595	0.039422	2.231563
112.825821	1397.996852	0.635600	0.039327	2.238990
113.306166	1408.997328	0.640605	0.039235	2.246338
113.899236	1420.056886	0.645610	0.039121	2.253725
114.523482	1431.032853	0.650614	0.039001	2.261041
115.160187	1442.083231	0.655619	0.038878	2.268383
115.876209	1453.074655	0.660624	0.038741	2.275681
116.321692	1464.134612	0.665628	0.038655	2.282941
116.914450	1475.154450	0.670633	0.038541	2.290183
117.416443	1486.200379	0.675638	0.038444	2.297400
117.994189	1497.189358	0.680643	0.038333	2.304574
118.468558	1508.246271	0.685647	0.038241	2.311747
118.891695	1519.267339	0.690652	0.038159	2.318863
119.451740	1530.293653	0.695657	0.038051	2.325990
119.968896	1541.304811	0.700661	0.037952	2.333076
120.514569	1552.347500	0.705666	0.037846	2.340167
121.102423	1563.329897	0.710671	0.037733	2.347207
121.700428	1574.402849	0.715676	0.037619	2.354284
122.202972	1585.405608	0.720680	0.037521	2.361277
122.911662	1596.417138	0.725685	0.037386	2.368296
123.340441	1607.467854	0.730690	0.037303	2.375261
123.948447	1618.476855	0.735695	0.037186	2.382217
124.518652	1629.477142	0.740699	0.037076	2.389139
125.295146	1640.526322	0.745704	0.036928	2.396113
125.755464	1651.563145	0.750709	0.036839	2.402995
126.183621	1662.592703	0.755713	0.036755	2.409846
126.673564	1673.598971	0.760718	0.036661	2.416676
127.474750	1684.602757	0.765723	0.036508	2.423547
128.002420	1695.645018	0.770728	0.036406	2.430367
128.287956	1706.704204	0.775732	0.036350	2.437130
128.457506	1717.731762	0.780737	0.036315	2.443832
129.182809	1728.694397	0.785742	0.036176	2.450586
129.708583	1739.745088	0.790747	0.036075	2.457336
130.230244	1750.770434	0.795751	0.035974	2.464050
130.623687	1761.785937	0.800756	0.035898	2.470715
131.241194	1772.815765	0.805761	0.035779	2.477414
131.693353	1783.849619	0.810765	0.035692	2.484066
132.040206	1794.866617	0.815770	0.035624	2.490669
132.660048	1805.870985	0.820775	0.035505	2.497299
133.166200	1816.936660	0.825780	0.035407	2.503926
133.480894	1827.924912	0.830784	0.035345	2.510454
133.781343	1838.980664	0.835789	0.035286	2.517001
134.155032	1849.982616	0.840794	0.035213	2.523513
135.135695	1860.933480	0.845799	0.035027	2.530094
135.499142	1872.023716	0.850803	0.034956	2.536622
136.169185	1883.047607	0.855808	0.034827	2.543152
136.505008	1894.050231	0.860813	0.034761	2.549590
137.121991	1905.093090	0.865817	0.034643	2.556088
137.517220	1916.113946	0.870822	0.034566	2.562515
137.955896	1927.130810	0.875827	0.034481	2.568932
138.360299	1938.203501	0.880832	0.034402	2.575358
138.583491	1949.214423	0.885836	0.034358	2.581699
139.102715	1960.175878	0.890841	0.034258	2.588051
139.614407	1971.220105	0.895846	0.034159	2.594433
140.101209	1982.233084	0.900850	0.034065	2.600777
140.559724	1993.267525	0.905855	0.033976	2.607112
141.031090	2004.275269	0.910860	0.033885	2.613419
141.484382	2015.278062	0.915865	0.033797	2.619704
142.028514	2026.306071	0.920869	0.033692	2.626005
142.544745	2037.359084	0.925874	0.033593	2.632300
142.979023	2048.339508	0.930879	0.033508	2.638524
143.479537	2059.373730	0.935884	0.033412	2.644775
143.970976	2070.379277	0.940888	0.033317	2.650994
144.340435	2081.415308	0.945893	0.033245	2.657193
144.839080	2092.417338	0.950898	0.033149	2.663382
145.242627	2103.449300	0.955902	0.033070	2.669556
145.755597	2114.451064	0.960907	0.032971	2.675718
146.321226	2125.480891	0.965912	0.032862	2.681891
146.874358	2136.495324	0.970917	0.032756	2.688038
146.981635	2147.580568	0.975921	0.032733	2.694133
147.456301	2158.520493	0.980926	0.032641	2.700198
147.901446	2169.570577	0.985931	0.032555	2.706305
148.561914	2180.570712	0.990936	0.032428	2.712407
149.015316	2191.617528	0.995940	0.032340	2.718485
149.430197	2202.620493	1.000945	0.032260	2.724519
149.969843	2213.669764	1.005950	0.032156	2.730586
150.384946	2224.652017	1.010954	0.032075	2.736582
150.991273	2235.672476	1.015959	0.031959	2.742618
151.608849	2246.689436	1.020964	0.031840	2.748640
152.011190	2257.729528	1.025969	0.031762	2.754626
152.301296	2268.762144	1.030973	0.031705	2.760575
152.832835	2279.758499	1.035978	0.031602	2.766532
153.291857	2290.803106	1.040983	0.031513	2.772490
153.698702	2301.807793	1.045988	0.031434	2.778406
154.143000	2312.809414	1.050992	0.031348	2.784313
154.659426	2323.862051	1.055997	0.031249	2.790246
155.001629	2334.867129	1.061002	0.031182	2.796113
155.481451	2345.899124	1.066006	0.031089	2.802004
155.856921	2356.901234	1.071011	0.031016	2.807850
156.253634	2367.950509	1.076016	0.030938	2.813712
156.400166	2378.956627	1.081021	0.030908	2.819498
156.964238	2389.955166	1.086025	0.030800	2.825337
157.430668	2400.990658	1.091030	0.030709	2.831166
157.880358	2411.994593	1.096035	0.030622	2.836964
158.396829	2423.022575	1.101039	0.030523	2.842774
159.000369	2434.017856	1.106044	0.030407	2.848568
159.470020	2445.064955	1.111049	0.030316	2.854356
159.810658	2456.102829	1.116054	0.030249	2.860107
160.168245	2467.082862	1.121058	0.030179	2.865819
160.856279	2478.115907	1.126063	0.030048	2.871599
161.397678	2489.116649	1.131068	0.029943	2.877327
161.759075	2500.184361	1.136073	0.029873	2.883050
162.024403	2511.179867	1.141077	0.029820	2.888710
162.342711	2522.226946	1.146082	0.029758	2.894393
162.797796	2533.210546	1.151087	0.029670	2.900054
163.421377	2544.218018	1.156091	0.029550	2.905742
163.811667	2555.248355	1.161096	0.029474	2.911394
164.271758	2566.279845	1.166101	0.029385	2.917046
164.467201	2577.279268	1.171106	0.029345	2.922630
165.046934	2588.309076	1.176110	0.029234	2.928278
165.492268	2599.323589	1.181115	0.029148	2.933887
165.986098	2610.339935	1.186120	0.029052	2.939493
166.347825	2621.373845	1.191125	0.028982	2.945077
166.774549	2632.405589	1.196129	0.028899	2.950659
167.151950	2643.372924	1.201134	0.028825	2.956191
167.544120	2654.446441	1.206139	0.028749	2.961768
168.238592	2665.397390	1.211143	0.028616	2.967318
168.823297	2676.481618	1.216148	0.028504	2.972908
169.252553	2687.445863	1.221153	0.028420	2.978404
169.704238	2698.494209	1.226158	0.028333	2.983935
170.180903	2709.505370	1.231162	0.028241	2.989441
170.761646	2720.528773	1.236167	0.028129	2.994958
171.212562	2731.548793	1.241172	0.028042	3.000444
171.690905	2742.588864	1.246177	0.027949	3.005934
172.160608	2753.557230	1.251181	0.027858	3.011377
172.531262	2764.613471	1.256186	0.027786	3.016839
172.965047	2775.612938	1.261191	0.027702	3.022272
173.297582	2786.655399	1.266195	0.027637	3.027702
173.653759	2797.659567	1.271200	0.027567	3.033106
174.002770	2808.686551	1.276205	0.027499	3.038511
174.555856	2819.676955	1.281210	0.027392	3.043918
174.941906	2830.738784	1.286214	0.027317	3.049326
175.325602	2841.732741	1.291219	0.027243	3.054690
175.665223	2852.753778	1.296224	0.027176	3.060052
176.013295	2863.753042	1.301228	0.027108	3.065396
176.587161	2874.786535	1.306233	0.026998	3.070778
177.021135	2885.791105	1.311238	0.026913	3.076118
177.636806	2896.813435	1.316243	0.026795	3.081482
177.842256	2907.853337	1.321247	0.026754	3.086787
178.399855	2918.841294	1.326252	0.026647	3.092108
178.723664	2929.866306	1.331257	0.026583	3.097404
179.233142	2940.884433	1.336262	0.026485	3.102714
179.436014	2951.937714	1.341266	0.026444	3.107988
179.752304	2962.917747	1.346271	0.026382	3.113235
180.249624	2973.949026	1.351276	0.026286	3.118522
180.497502	2984.978578	1.356280	0.026237	3.123764
181.049309	2995.983018	1.361285	0.026130	3.129028
181.401421	3007.013635	1.366290	0.026062	3.134268
181.871652	3017.995726	1.371295	0.025971	3.139492
182.337601	3029.030516	1.376299	0.025880	3.144732
182.827624	3040.065122	1.381304	0.025786	3.149966
183.085031	3051.064561	1.386309	0.025735	3.155143
183.544893	3062.102644	1.391314	0.025646	3.160357
184.095323	3073.085964	1.396318	0.025540	3.165549
184.407641	3084.131394	1.401323	0.025478	3.170729
184.527329	3095.159361	1.406328	0.025453	3.175866
184.748200	3106.146101	1.411332	0.025409	3.180990
185.130701	3117.188671	1.416337	0.025335	3.186153
185.672455	3128.157145	1.421342	0.025230	3.191294
186.051583	3139.223752	1.426347	0.025156	3.196451
186.410986	3150.216686	1.431351	0.025086	3.201563
186.634152	3161.277362	1.436356	0.025042	3.206679
187.218308	3172.225234	1.441361	0.024929	3.211783
187.363389	3183.297395	1.446366	0.024899	3.216878
187.773737	3194.268044	1.451370	0.024820	3.221954
188.415308	3205.315271	1.456375	0.024696	3.227086
188.766909	3216.319449	1.461380	0.024628	3.232153
189.225381	3227.337120	1.466384	0.024539	3.237232
189.531066	3238.365155	1.471389	0.024479	3.242287
190.003355	3249.383303	1.476394	0.024387	3.247352
190.399785	3260.381038	1.481399	0.024310	3.252390
190.806721	3271.404940	1.486403	0.024231	3.257433
191.249791	3282.431802	1.491408	0.024145	3.262474
191.540663	3293.465201	1.496413	0.024088	3.267490
191.950789	3304.476075	1.501417	0.024008	3.272504
192.302251	3315.478013	1.506422	0.023940	3.277499
192.809351	3326.475459	1.511427	0.023842	3.282504
193.359104	3337.539305	1.516432	0.023736	3.287536
193.811249	3348.514600	1.521436	0.023648	3.292509
194.084958	3359.562098	1.526441	0.023594	3.297483
194.488715	3370.542557	1.531446	0.023516	3.302436
194.897049	3381.600984	1.536451	0.023437	3.307417
195.260552	3392.580453	1.541455	0.023366	3.312350
195.653366	3403.648459	1.546460	0.023289	3.317319
195.894202	3414.606256	1.551465	0.023241	3.322211
196.205087	3425.673378	1.556469	0.023180	3.327154
196.657359	3436.631718	1.561474	0.023093	3.332059
196.957840	3447.712609	1.566479	0.023033	3.336992
197.479901	3458.670977	1.571484	0.022933	3.341891
197.835035	3469.737126	1.576488	0.022863	3.346809
197.996058	3480.735510	1.581493	0.022830	3.351667
198.466441	3491.750203	1.586498	0.022739	3.356562
198.927518	3502.743455	1.591503	0.022650	3.361440
199.427020	3513.805807	1.596507	0.022554	3.366346
199.543220	3524.797572	1.601512	0.022529	3.371166
200.100104	3535.805818	1.606517	0.022422	3.376041
200.394990	3546.831715	1.611521	0.022364	3.380884
200.880942	3557.848100	1.616526	0.022270	3.385739
201.294975	3568.863558	1.621531	0.022190	3.390578
201.615471	3579.877441	1.626536	0.022127	3.395398
202.018618	3590.906513	1.631540	0.022048	3.400228
202.153818	3601.940633	1.636545	0.022020	3.405021
202.456583	3612.926315	1.641550	0.021961	3.409806
202.651706	3623.950498	1.646555	0.021921	3.414588
203.106783	3634.940383	1.651559	0.021833	3.419379
203.665872	3646.011540	1.656564	0.021726	3.424212
204.110441	3656.975160	1.661569	0.021640	3.428977
204.441732	3668.014304	1.666573	0.021575	3.433755
204.866590	3679.031522	1.671578	0.021492	3.438527
205.020233	3690.067355	1.676583	0.021461	3.443269
205.548227	3701.041222	1.681588	0.021359	3.448022
206.000065	3712.092055	1.686592	0.021271	3.452792
206.435524	3723.073706	1.691597	0.021187	3.457524
206.735315	3734.125875	1.696602	0.021128	3.462264
207.009852	3745.117385	1.701606	0.021074	3.466968
207.509254	3756.136483	1.706611	0.020977	3.471704
207.808601	3767.170873	1.711616	0.020918	3.476416
208.258737	3778.171691	1.716621	0.020831	3.481125
208.788737	3789.171814	1.721625	0.020729	3.485837
209.042404	3800.217978	1.726630	0.020679	3.490529
209.404158	3811.211838	1.731635	0.020608	3.495206
209.902684	3822.235265	1.736640	0.020512	3.499905
210.148129	3833.276309	1.741644	0.020463	3.504575
210.587270	3844.275680	1.746649	0.020378	3.509244
210.953730	3855.269715	1.751654	0.020306	3.513896
211.287598	3866.335292	1.756658	0.020241	3.518569
211.756627	3877.302141	1.761663	0.020150	3.523208
212.272563	3888.341435	1.766668	0.020051	3.527878
212.513985	3899.338614	1.771673	0.020003	3.532492
212.883956	3910.380748	1.776677	0.019931	3.537134
213.213267	3921.363146	1.781682	0.019866	3.541739
213.646253	3932.407255	1.786687	0.019782	3.546377
214.025617	3943.403932	1.791692	0.019708	3.550982
214.424911	3954.436989	1.796696	0.019630	3.555598
214.692411	3965.451651	1.801701	0.019578	3.560186
215.062059	3976.482691	1.806706	0.019505	3.564787
215.279299	3987.472515	1.811710	0.019462	3.569347
215.483756	3998.516412	1.816715	0.019421	3.573922
215.893145	4009.514226	1.821720	0.019341	3.578495
216.172744	4020.540837	1.826725	0.019286	3.583060
216.593968	4031.539195	1.831729	0.019204	3.587623
216.927814	4042.557843	1.836734	0.019139	3.592178
217.323522	4053.570405	1.841739	0.019062	3.596733
217.619837	4064.601728	1.846744	0.019004	3.601278
217.873144	4075.615166	1.851748	0.018953	3.605805
218.223415	4086.627509	1.856753	0.018885	3.610336
218.601467	4097.653498	1.861758	0.018811	3.614871
218.904482	4108.695243	1.866762	0.018752	3.619398
219.270293	4119.712858	1.871767	0.018680	3.623916
219.513979	4130.762399	1.876772	0.018632	3.628428
219.802973	4141.741462	1.881777	0.018575	3.632911
220.107326	4152.778871	1.886781	0.018515	3.637413
220.576068	4163.751916	1.891786	0.018424	3.641902
220.902086	4174.806856	1.896791	0.018361	3.646403
221.193998	4185.781788	1.901795	0.018303	3.650862
221.542141	4196.860204	1.906800	0.018235	3.655363
221.943908	4207.817355	1.911805	0.018157	3.659816
222.047792	4218.883039	1.916810	0.018135	3.664275
222.364625	4229.870440	1.921814	0.018073	3.668720
222.592036	4240.910547	1.926819	0.018027	3.673171
223.013223	4251.896961	1.931824	0.017945	3.677615
223.323680	4262.933909	1.936829	0.017884	3.682063
223.736748	4273.941159	1.941833	0.017804	3.686504
224.002195	4284.960000	1.946838	0.017752	3.690929
224.335761	4295.949400	1.951843	0.017686	3.695344
224.568717	4306.998929	1.956847	0.017640	3.699766
224.839247	4317.992371	1.961852	0.017586	3.704166
225.062447	4329.031913	1.966857	0.017542	3.708573
225.374242	4340.010520	1.971862	0.017481	3.712960
225.681169	4351.067520	1.976866	0.017420	3.717372
226.036088	4362.040198	1.981871	0.017351	3.721751
226.422468	4373.083541	1.986876	0.017276	3.726155
226.749787	4384.074105	1.991881	0.017211	3.730528
227.076858	4395.123863	1.996885	0.017147	3.734918
227.619432	4406.097040	2.001890	0.017043	3.739295
227.834385	4417.165056	2.006895	0.017000	3.743671
