Wed Nov 23 18:28:15 2022

Number of Points = 2200
Depth (nm)	Load (µN)	Time (s)	Depth (V)	Load (V)
-1.757101	0.847912	0.000000	-0.059421	1.207794
0.000000	8.338122	0.005005	-0.059753	1.217565
2.045761	17.966729	0.010009	-0.060139	1.229918
3.522679	28.894208	0.015014	-0.060419	1.243426
5.029853	39.981966	0.020019	-0.060704	1.256986
6.386357	51.062391	0.025024	-0.060962	1.270329
7.660636	62.198851	0.030028	-0.061204	1.283562
9.116888	73.222475	0.035033	-0.061480	1.296607
12.148770	84.059409	0.040038	-0.062051	1.309951
14.441143	95.244104	0.045043	-0.062484	1.323245
16.227434	106.423186	0.050047	-0.062822	1.336199
17.767490	117.534168	0.055052	-0.063114	1.348858
19.526205	128.608922	0.060057	-0.063446	1.361443
21.297901	139.678196	0.065061	-0.063782	1.373912
22.702422	150.836993	0.070066	-0.064048	1.386222
24.235661	161.854114	0.075071	-0.064338	1.398323
25.668186	172.989797	0.080076	-0.064610	1.410404
26.951350	184.071619	0.085080	-0.064853	1.422272
28.410880	195.113621	0.090085	-0.065130	1.434064
29.637212	206.216609	0.095090	-0.065363	1.445737
31.016188	217.288895	0.100094	-0.065624	1.457339
32.229168	228.324923	0.105099	-0.065855	1.468754
33.420396	239.433934	0.110104	-0.066081	1.480144
34.173772	250.566280	0.115109	-0.066225	1.491316
35.436622	261.537661	0.120113	-0.066465	1.502425
36.631903	272.588972	0.125118	-0.066692	1.513506
37.468473	283.739551	0.130123	-0.066852	1.524478
38.485266	294.764324	0.135128	-0.067045	1.535312
39.215506	305.875951	0.140132	-0.067185	1.546056
39.922477	316.930038	0.145137	-0.067320	1.556663
41.050400	327.882113	0.150142	-0.067535	1.567243
41.846614	339.019088	0.155146	-0.067687	1.577812
42.717663	350.046271	0.160151	-0.067853	1.588235
44.708125	360.919199	0.165156	-0.068229	1.598813
45.733374	372.135922	0.170161	-0.068424	1.609319
46.851177	383.172362	0.175165	-0.068637	1.619625
48.049743	394.196894	0.180170	-0.068864	1.629880
48.746685	405.324733	0.185175	-0.068998	1.640003
49.667596	416.352529	0.190180	-0.069173	1.650046
50.584687	427.399183	0.195184	-0.069348	1.660043
51.334832	438.458876	0.200189	-0.069492	1.669940
52.284455	449.478169	0.205194	-0.069673	1.679804
53.353674	460.530725	0.210198	-0.069876	1.689675
54.174580	471.572776	0.215203	-0.070033	1.699404
55.352725	482.587869	0.220208	-0.070257	1.709162
56.070333	493.698200	0.225213	-0.070394	1.718807
57.144783	504.667425	0.230217	-0.070598	1.728385
58.034707	515.773047	0.235222	-0.070768	1.737969
59.114585	526.746597	0.240227	-0.070973	1.747446
59.934012	537.865336	0.245232	-0.071130	1.756916
60.770523	548.883247	0.250236	-0.071290	1.766256
61.631280	559.927767	0.255241	-0.071454	1.775576
62.899329	570.880126	0.260246	-0.071694	1.784888
63.894884	581.982090	0.265250	-0.071884	1.794195
64.863933	593.036189	0.270255	-0.072069	1.803407
65.706308	604.063034	0.275260	-0.072229	1.812514
66.789907	615.112858	0.280265	-0.072435	1.821662
67.739392	626.118401	0.285269	-0.072616	1.830690
68.479976	637.232209	0.290274	-0.072758	1.839702
69.426556	648.213514	0.295279	-0.072938	1.848622
70.248003	659.299315	0.300283	-0.073095	1.857546
71.293998	670.279371	0.305288	-0.073294	1.866406
72.202072	681.342318	0.310293	-0.073467	1.875250
72.831132	692.394050	0.315298	-0.073588	1.883969
74.108018	703.367324	0.320302	-0.073830	1.892761
74.700154	714.503108	0.325307	-0.073944	1.901453
75.749383	725.455887	0.330312	-0.074144	1.910087
76.441222	736.550485	0.335317	-0.074276	1.918695
77.270976	747.546873	0.340321	-0.074435	1.927227
78.317283	758.585567	0.345326	-0.074634	1.935809
79.058247	769.648576	0.350331	-0.074776	1.944291
79.775946	780.669329	0.355335	-0.074913	1.952699
80.541369	791.715703	0.360340	-0.075059	1.961102
81.512132	802.673002	0.365345	-0.075244	1.969455
82.495370	813.771202	0.370350	-0.075432	1.977879
83.091330	824.826743	0.375354	-0.075546	1.986138
84.122170	835.805390	0.380359	-0.075742	1.994416
84.798424	846.870043	0.385364	-0.075872	2.002633
85.819775	857.868599	0.390369	-0.076066	2.010854
86.464597	868.954168	0.395373	-0.076190	2.019010
87.347363	879.948330	0.400378	-0.076358	2.027127
88.195366	890.984947	0.405383	-0.076520	2.035233
89.061787	902.012023	0.410387	-0.076686	2.043303
89.905751	913.035927	0.415392	-0.076847	2.051334
90.805917	924.063376	0.420397	-0.077018	2.059350
91.558269	935.144521	0.425402	-0.077162	2.067336
92.259784	946.156943	0.430406	-0.077297	2.075231
92.873967	957.193664	0.435411	-0.077415	2.083092
93.652033	968.213844	0.440416	-0.077563	2.090950
94.327234	979.249089	0.445421	-0.077693	2.098765
95.198939	990.232095	0.450425	-0.077859	2.106561
95.947995	1001.309556	0.455430	-0.078002	2.114364
96.773178	1012.302295	0.460435	-0.078160	2.122097
97.435154	1023.370990	0.465439	-0.078287	2.129816
98.248653	1034.392295	0.470444	-0.078442	2.137510
98.925551	1045.441848	0.475449	-0.078572	2.145164
99.532119	1056.456924	0.480454	-0.078688	2.152750
100.297607	1067.493289	0.485458	-0.078835	2.160361
101.050051	1078.485865	0.490463	-0.078979	2.167912
101.914421	1089.550236	0.495468	-0.079144	2.175509
102.417038	1100.576529	0.500472	-0.079241	2.182974
103.246553	1111.576516	0.505477	-0.079399	2.190468
103.755790	1122.649074	0.510482	-0.079497	2.197913
104.385344	1133.681233	0.515487	-0.079618	2.205333
105.138993	1144.646474	0.520491	-0.079762	2.212712
105.743593	1155.735456	0.525496	-0.079879	2.220113
106.604569	1166.712352	0.530501	-0.080043	2.227473
107.045811	1177.794487	0.535506	-0.080128	2.234785
107.704889	1188.773518	0.540510	-0.080255	2.242054
108.475504	1199.806124	0.545515	-0.080402	2.249357
109.320615	1210.827961	0.550520	-0.080563	2.256646
109.723236	1221.901115	0.555524	-0.080642	2.263849
110.303212	1232.894902	0.560529	-0.080753	2.271016
110.958007	1243.908745	0.565534	-0.080879	2.278190
111.661806	1254.942805	0.570539	-0.081014	2.285363
112.347574	1265.968941	0.575543	-0.081145	2.292505
113.156415	1276.973848	0.580548	-0.081299	2.299637
113.949050	1287.986166	0.585553	-0.081451	2.306748
114.642002	1299.064374	0.590558	-0.081584	2.313858
115.179282	1310.064801	0.595562	-0.081687	2.320864
115.923225	1321.095644	0.600567	-0.081830	2.327911
116.640187	1332.123623	0.605572	-0.081967	2.334929
117.177412	1343.165108	0.610576	-0.082070	2.341897
117.661695	1354.176552	0.615581	-0.082164	2.348815
118.372180	1365.187538	0.620586	-0.082300	2.355758
118.990999	1376.217689	0.625591	-0.082419	2.362674
119.907742	1387.212451	0.630595	-0.082594	2.369608
120.593226	1398.257265	0.635600	-0.082725	2.376505
121.160855	1409.308446	0.640605	-0.082834	2.383362
121.607950	1420.328180	0.645610	-0.082921	2.390156
122.233475	1431.339891	0.650614	-0.083041	2.396962
122.724029	1442.385796	0.655619	-0.083136	2.403742
123.545112	1453.353677	0.660624	-0.083292	2.410521
123.900038	1464.458635	0.665628	-0.083362	2.417271
124.508973	1475.434101	0.670633	-0.083479	2.423975
124.986176	1486.471162	0.675638	-0.083571	2.430671
125.503146	1497.475551	0.680643	-0.083671	2.437336
126.128734	1508.518462	0.685647	-0.083791	2.444027
126.683148	1519.517262	0.690652	-0.083898	2.450660
127.271891	1530.545534	0.695657	-0.084011	2.457299
128.072786	1541.563490	0.700661	-0.084164	2.463954
128.759342	1552.582958	0.705666	-0.084295	2.470571
129.345734	1563.620268	0.710671	-0.084408	2.477160
129.793267	1574.682199	0.715676	-0.084495	2.483720
130.329109	1585.649252	0.720680	-0.084598	2.490224
130.998153	1596.700548	0.725685	-0.084726	2.496785
131.328467	1607.741437	0.730690	-0.084791	2.503259
131.920449	1618.718863	0.735695	-0.084905	2.509728
132.567535	1629.742814	0.740699	-0.085029	2.516217
133.160887	1640.785579	0.745704	-0.085143	2.522691
133.763269	1651.801340	0.750709	-0.085259	2.529134
134.310931	1662.833708	0.755713	-0.085364	2.535560
134.875527	1673.838815	0.760718	-0.085473	2.541956
135.459111	1684.876194	0.765723	-0.085585	2.548359
135.810154	1695.890312	0.770728	-0.085654	2.554689
136.542270	1706.900377	0.775732	-0.085794	2.561071
136.976765	1717.953325	0.780737	-0.085878	2.567407
137.673448	1728.982177	0.785742	-0.086012	2.573761
137.917246	1740.020438	0.790747	-0.086060	2.580023
138.348378	1751.021135	0.795751	-0.086144	2.586282
139.034980	1762.006088	0.800756	-0.086275	2.592563
139.486448	1773.041525	0.805761	-0.086363	2.598815
139.954929	1784.068744	0.810765	-0.086453	2.605050
140.424458	1795.090110	0.815770	-0.086544	2.611266
141.128734	1806.078458	0.820775	-0.086679	2.617492
141.952176	1817.109575	0.825780	-0.086836	2.623746
142.298290	1828.155414	0.830784	-0.086904	2.629910
142.789680	1839.159046	0.835789	-0.086999	2.636062
143.228800	1850.213319	0.840794	-0.087084	2.642218
143.792222	1861.202381	0.845799	-0.087193	2.648345
144.193493	1872.254785	0.850803	-0.087271	2.654464
144.537423	1883.260394	0.855808	-0.087338	2.660534
145.090481	1894.262685	0.860813	-0.087444	2.666624
145.825180	1905.285160	0.865817	-0.087585	2.672742
146.158783	1916.315941	0.870822	-0.087650	2.678782
146.820053	1927.309052	0.875827	-0.087777	2.684844
147.124986	1938.394522	0.880832	-0.087837	2.690881
147.748499	1949.355005	0.885836	-0.087957	2.696891
148.262253	1960.392744	0.890841	-0.088056	2.702911
148.538395	1971.429083	0.895846	-0.088110	2.708876
149.033822	1982.446316	0.900850	-0.088206	2.714854
149.668579	1993.435948	0.905855	-0.088328	2.720828
150.170160	2004.478826	0.910860	-0.088425	2.726795
150.509177	2015.543976	0.915865	-0.088491	2.732734
150.925610	2026.493311	0.920869	-0.088572	2.738610
151.662517	2037.498128	0.925874	-0.088713	2.744557
152.216796	2048.559375	0.930879	-0.088820	2.750490
152.578107	2059.554225	0.935884	-0.088890	2.756343
153.044132	2070.590755	0.940888	-0.088980	2.762223
153.481458	2081.587073	0.945893	-0.089065	2.768065
154.023886	2092.606075	0.950898	-0.089170	2.773923
154.567575	2103.615159	0.955902	-0.089275	2.779764
154.913420	2114.667609	0.960907	-0.089342	2.785582
155.484111	2125.664169	0.965912	-0.089452	2.791396
155.775675	2136.714979	0.970917	-0.089509	2.797181
156.333113	2147.707222	0.975921	-0.089617	2.802966
156.850892	2158.729097	0.980926	-0.089717	2.808748
157.220625	2169.764402	0.985931	-0.089789	2.814501
157.600944	2180.775770	0.990936	-0.089863	2.820232
158.100110	2191.797018	0.995940	-0.089959	2.825975
158.456255	2202.806198	1.000945	-0.090029	2.831677
158.905798	2213.842188	1.005950	-0.090116	2.837397
159.313182	2224.832596	1.010954	-0.090195	2.843074
159.892659	2235.869153	1.015959	-0.090306	2.848791
160.236881	2246.890929	1.020964	-0.090374	2.854452
160.662585	2257.906898	1.025969	-0.090456	2.860111
161.108354	2268.927321	1.030973	-0.090543	2.865764
161.663780	2279.946932	1.035978	-0.090650	2.871423
162.215904	2290.947229	1.040983	-0.090756	2.877060
162.537493	2301.980108	1.045988	-0.090819	2.882667
163.203007	2312.987535	1.050992	-0.090947	2.888303
163.445718	2324.061656	1.055997	-0.090995	2.893896
163.736297	2335.031806	1.061002	-0.091052	2.899434
164.211795	2346.061318	1.066006	-0.091144	2.905019
164.587256	2357.089829	1.071011	-0.091217	2.910577
165.232359	2368.080422	1.076016	-0.091341	2.916147
165.724918	2379.103929	1.081021	-0.091436	2.921699
166.113881	2390.145153	1.086025	-0.091512	2.927234
166.535211	2401.127206	1.091030	-0.091594	2.932733
166.939503	2412.175370	1.096035	-0.091672	2.938253
167.222592	2423.187065	1.101039	-0.091728	2.943726
167.857250	2434.212890	1.106044	-0.091850	2.949248
168.145902	2445.224761	1.111049	-0.091907	2.954701
168.873535	2456.243913	1.116054	-0.092046	2.960212
169.041283	2467.268199	1.121058	-0.092080	2.965633
169.519813	2478.285061	1.126063	-0.092173	2.971087
169.901588	2489.296097	1.131068	-0.092247	2.976513
170.241752	2500.319636	1.136073	-0.092314	2.981929
170.656502	2511.323180	1.141077	-0.092394	2.987336
171.321112	2522.346203	1.146082	-0.092522	2.992779
171.676205	2533.364124	1.151087	-0.092591	2.998165
172.150662	2544.394293	1.156091	-0.092683	3.003564
172.290679	2555.432256	1.161096	-0.092712	3.008909
172.786355	2566.418669	1.166101	-0.092808	3.014271
173.153813	2577.444008	1.171106	-0.092879	3.019623
173.561999	2588.457624	1.176110	-0.092959	3.024966
173.921820	2599.478190	1.181115	-0.093029	3.030296
174.310257	2610.523758	1.186120	-0.093105	3.035632
174.662308	2621.522771	1.191125	-0.093173	3.040932
174.999888	2632.533857	1.196129	-0.093239	3.046226
175.330579	2643.564548	1.201134	-0.093304	3.051519
175.642135	2654.556596	1.206139	-0.093365	3.056782
176.206821	2665.572639	1.211143	-0.093474	3.062082
176.545767	2676.612525	1.216148	-0.093540	3.067353
176.851526	2687.624039	1.221153	-0.093600	3.072597
177.099389	2698.655249	1.226158	-0.093650	3.077833
177.657102	2709.635892	1.231162	-0.093757	3.083079
177.965644	2720.705387	1.236167	-0.093818	3.088323
178.286011	2731.679310	1.241172	-0.093881	3.093516
178.883382	2742.709859	1.246177	-0.093995	3.098764
179.146234	2753.729863	1.251181	-0.094047	3.103952
179.693134	2764.748689	1.256186	-0.094153	3.109170
180.019384	2775.756187	1.261191	-0.094217	3.114343
180.463312	2786.792819	1.266195	-0.094303	3.119538
181.073378	2797.777421	1.271200	-0.094420	3.124722
181.503722	2808.823434	1.276205	-0.094503	3.129901
181.978234	2819.811824	1.281210	-0.094595	3.135051
182.423026	2830.863313	1.286214	-0.094681	3.140218
182.806229	2841.856631	1.291219	-0.094756	3.145341
183.215609	2852.910169	1.296224	-0.094836	3.150486
183.461437	2863.907552	1.301228	-0.094884	3.155576
183.866039	2874.918248	1.306233	-0.094963	3.160684
184.213022	2885.935307	1.311238	-0.095031	3.165780
184.625607	2896.963713	1.316243	-0.095111	3.170881
185.048100	2907.970501	1.321247	-0.095193	3.175965
185.429210	2918.973800	1.326252	-0.095267	3.181034
185.764412	2930.013837	1.331257	-0.095333	3.186105
186.142624	2941.046309	1.336262	-0.095407	3.191171
186.392187	2952.010685	1.341266	-0.095456	3.196180
186.871601	2963.066088	1.346271	-0.095549	3.201253
187.168345	2974.092799	1.351276	-0.095607	3.206281
187.550071	2985.102255	1.356280	-0.095682	3.211304
187.870884	2996.092854	1.361285	-0.095744	3.216303
188.421831	3007.117930	1.366290	-0.095851	3.221340
188.886744	3018.130659	1.371295	-0.095941	3.226352
189.244711	3029.177080	1.376299	-0.096010	3.231357
189.452885	3040.182193	1.381304	-0.096052	3.236316
190.118214	3051.172538	1.386309	-0.096180	3.241320
190.365992	3062.228756	1.391314	-0.096229	3.246292
190.622546	3073.254151	1.396318	-0.096280	3.251244
190.823619	3084.241630	1.401323	-0.096320	3.256164
191.229822	3095.260439	1.406328	-0.096399	3.261117
191.666079	3106.277992	1.411332	-0.096484	3.266066
192.275032	3117.279006	1.416337	-0.096601	3.271021
192.768256	3128.311198	1.421342	-0.096696	3.275968
193.211735	3139.333008	1.426347	-0.096782	3.280896
193.470629	3150.357724	1.431351	-0.096833	3.285795
193.787603	3161.381260	1.436356	-0.096896	3.290694
194.079818	3172.372475	1.441361	-0.096953	3.295567
194.686202	3183.389416	1.446366	-0.097070	3.300484
195.140926	3194.400783	1.451370	-0.097158	3.305372
195.667885	3205.439869	1.456375	-0.097259	3.310274
195.849212	3216.458431	1.461380	-0.097296	3.315117
196.224766	3227.455682	1.466384	-0.097369	3.319967
196.562161	3238.489449	1.471389	-0.097435	3.324822
197.085776	3249.501618	1.476394	-0.097536	3.329682
197.344380	3260.510077	1.481399	-0.097588	3.334502
197.749557	3271.518012	1.486403	-0.097666	3.339332
198.254490	3282.542396	1.491408	-0.097764	3.344174
198.662184	3293.573713	1.496413	-0.097843	3.349000
199.045341	3304.562463	1.501417	-0.097918	3.353798
199.594293	3315.601994	1.506422	-0.098023	3.358631
199.764337	3326.620360	1.511427	-0.098058	3.363402
200.125919	3337.646791	1.516432	-0.098129	3.368193
200.477299	3348.641250	1.521436	-0.098197	3.372962
201.009240	3359.648617	1.526441	-0.098300	3.377751
201.458919	3370.660764	1.531446	-0.098387	3.382525
202.077484	3381.706183	1.536451	-0.098506	3.387327
202.189244	3392.723712	1.541455	-0.098529	3.392050
202.475831	3403.724308	1.546460	-0.098586	3.396780
202.789375	3414.746235	1.551465	-0.098647	3.401516
203.155065	3425.772324	1.556469	-0.098719	3.406252
203.528087	3436.757699	1.561474	-0.098791	3.410966
204.000306	3447.789365	1.566479	-0.098883	3.415704
204.312641	3458.821233	1.571484	-0.098944	3.420417
204.530003	3469.837237	1.576488	-0.098988	3.425106
205.002051	3480.841262	1.581493	-0.099079	3.429812
205.461407	3491.848805	1.586498	-0.099168	3.434513
205.891159	3502.870368	1.591503	-0.099251	3.439209
206.332279	3513.907254	1.596507	-0.099337	3.443906
206.531902	3524.930005	1.601512	-0.099377	3.448563
206.884174	3535.918581	1.606517	-0.099446	3.453217
207.069223	3546.953183	1.611521	-0.099483	3.457865
207.427166	3557.939119	1.616526	-0.099553	3.462506
207.899074	3568.970269	1.621531	-0.099644	3.467172
208.289200	3579.997146	1.626536	-0.099720	3.471821
208.731775	3590.994159	1.631540	-0.099806	3.476457
209.088890	3602.016786	1.636545	-0.099876	3.481088
209.485326	3613.029460	1.641550	-0.099953	3.485713
209.826159	3624.057950	1.646555	-0.100020	3.490332
210.197806	3635.060618	1.651559	-0.100092	3.494938
210.491400	3646.110624	1.656564	-0.100150	3.499548
210.967341	3657.079266	1.661569	-0.100242	3.504139
211.505493	3668.107910	1.666573	-0.100346	3.508755
211.690165	3679.152476	1.671578	-0.100383	3.513333
212.019080	3690.149928	1.676583	-0.100447	3.517901
212.330921	3701.162790	1.681588	-0.100509	3.522468
212.577478	3712.198701	1.686592	-0.100558	3.527030
212.825779	3723.212889	1.691597	-0.100607	3.531579
213.284858	3734.193981	1.696602	-0.100696	3.536130
213.638521	3745.231694	1.701606	-0.100765	3.540688
214.105988	3756.239670	1.706611	-0.100855	3.545240
214.265058	3767.260719	1.711616	-0.100888	3.549757
214.745726	3778.272671	1.716621	-0.100981	3.554300
215.278549	3789.280605	1.721625	-0.101084	3.558842
215.766214	3800.309778	1.726630	-0.101178	3.563381
216.065395	3811.341471	1.731635	-0.101237	3.567895
216.424649	3822.319033	1.736640	-0.101307	3.572387
216.675578	3833.351154	1.741644	-0.101357	3.576884
217.165671	3844.353067	1.746649	-0.101451	3.581389
217.328230	3855.409166	1.751654	-0.101485	3.585875
217.582014	3866.405515	1.756658	-0.101535	3.590341
217.757418	3877.420298	1.761663	-0.101571	3.594801
218.091234	3888.447303	1.766668	-0.101636	3.599277
218.326928	3899.480119	1.771673	-0.101683	3.603739
218.853241	3910.457010	1.776677	-0.101784	3.608203
219.237748	3921.486971	1.781682	-0.101859	3.612669
219.877610	3932.469039	1.786687	-0.101982	3.617136
220.132303	3943.526139	1.791692	-0.102033	3.621588
220.783444	3954.511503	1.796696	-0.102157	3.626047
221.087164	3965.531084	1.801701	-0.102217	3.630477
221.631807	3976.566175	1.806706	-0.102322	3.634933
221.873298	3987.579485	1.811710	-0.102370	3.639344
222.187783	3998.598244	1.816715	-0.102432	3.643759
222.455528	4009.613783	1.821720	-0.102485	3.648162
222.746880	4020.628823	1.826725	-0.102542	3.652562
223.094019	4031.645991	1.831729	-0.102610	3.656963
223.357631	4042.641700	1.836734	-0.102662	3.661342
223.500030	4053.687138	1.841739	-0.102692	3.665723
223.921976	4064.675520	1.846744	-0.102774	3.670105
224.012119	4075.721702	1.851748	-0.102793	3.674470
224.600255	4086.697751	1.856753	-0.102906	3.678853
224.923540	4097.785512	1.861758	-0.102970	3.683248
225.320325	4108.809716	1.866762	-0.103047	3.687620
225.502777	4119.802550	1.871767	-0.103084	3.691953
225.985015	4130.806640	1.876772	-0.103177	3.696315
226.155769	4141.838394	1.881777	-0.103212	3.700652
226.900575	4152.846150	1.886781	-0.103354	3.705032
227.176416	4163.874097	1.891786	-0.103409	3.709367
227.585079	4174.880190	1.896791	-0.103488	3.713702
227.759891	4185.950023	1.901795	-0.103524	3.718033
228.132382	4196.904285	1.906800	-0.103596	3.722334
228.452767	4207.943570	1.911805	-0.103659	3.726658
228.989376	4218.919618	1.916810	-0.103763	3.730973
229.335632	4229.976104	1.921814	-0.103830	3.735296
229.679627	4240.972095	1.926819	-0.103898	3.739590
229.992124	4251.999566	1.931824	-0.103959	3.743888
230.476926	4262.991164	1.936829	-0.104053	3.748184
230.589864	4274.061452	1.941833	-0.104077	3.752469
231.006356	4285.045333	1.946838	-0.104158	3.756745
231.528468	4296.054158	1.951843	-0.104258	3.761037
231.789653	4307.076528	1.956847	-0.104310	3.765303
232.119527	4318.095821	1.961852	-0.104375	3.769570
232.503913	4329.098606	1.966857	-0.104449	3.773831
