Wed Nov 23 19:06:18 2022

Number of Points = 2200
Depth (nm)	Load (µN)	Time (s)	Depth (V)	Load (V)
-2.048500	0.053474	0.000000	-0.038238	1.155694
0.000000	7.941432	0.005005	-0.038625	1.166566
1.625123	17.719666	0.010009	-0.038932	1.179487
3.113807	28.605366	0.015014	-0.039214	1.193562
4.083634	39.769484	0.020019	-0.039399	1.207579
5.390556	50.794667	0.025024	-0.039647	1.221416
6.616388	61.941748	0.030028	-0.039879	1.235206
9.574767	72.637310	0.035033	-0.040437	1.249056
11.672432	83.891798	0.040038	-0.040834	1.263034
13.309320	95.117563	0.045043	-0.041144	1.276633
14.765049	106.212528	0.050047	-0.041419	1.289864
16.340486	117.384017	0.055052	-0.041718	1.303095
17.550047	128.499115	0.060057	-0.041948	1.315981
19.034268	139.506049	0.065061	-0.042229	1.328732
20.487789	150.610415	0.070066	-0.042504	1.341456
21.769232	161.695586	0.075071	-0.042747	1.353970
23.263199	172.764141	0.080076	-0.043031	1.366434
24.806160	183.801790	0.085080	-0.043323	1.378770
26.538366	194.870855	0.090085	-0.043651	1.391101
27.512744	206.083303	0.095090	-0.043836	1.403186
28.784416	217.087185	0.100094	-0.044078	1.415064
29.865577	228.211041	0.105099	-0.044283	1.426893
30.874112	239.288096	0.110104	-0.044475	1.438551
31.835510	250.348071	0.115109	-0.044658	1.450081
33.026312	261.385895	0.120113	-0.044884	1.461579
34.276057	272.457065	0.125118	-0.045122	1.473041
34.952347	283.593384	0.130123	-0.045251	1.484274
35.837082	294.631270	0.135128	-0.045420	1.495400
36.908780	305.656873	0.140132	-0.045624	1.506497
37.802990	316.725681	0.145137	-0.045794	1.517492
39.007032	327.757737	0.150142	-0.046023	1.528478
40.115583	338.830862	0.155146	-0.046234	1.539392
40.950946	349.911468	0.160151	-0.046393	1.550144
41.976016	360.968172	0.165156	-0.046588	1.560862
42.916454	372.013085	0.170161	-0.046768	1.571467
43.867433	383.068905	0.175165	-0.046949	1.582014
44.896939	394.093767	0.180170	-0.047145	1.592488
46.141878	405.142627	0.185175	-0.047381	1.602985
46.867960	416.253090	0.190180	-0.047520	1.613302
47.636499	427.322109	0.195184	-0.047667	1.623529
48.628309	438.306583	0.200189	-0.047856	1.633687
49.818856	449.340430	0.205194	-0.048082	1.643888
50.700822	460.448127	0.210198	-0.048250	1.653994
51.357291	471.494154	0.215203	-0.048376	1.663914
52.086216	482.558326	0.220208	-0.048516	1.673813
53.039450	493.559642	0.225213	-0.048697	1.683668
53.954692	504.628125	0.230217	-0.048872	1.693511
54.803276	515.658107	0.235222	-0.049034	1.703244
55.706751	526.699478	0.240227	-0.049206	1.712947
56.702680	537.735119	0.245232	-0.049395	1.722618
57.244155	548.845667	0.250236	-0.049500	1.732163
57.918381	559.870983	0.255241	-0.049629	1.741623
58.556859	570.897931	0.260246	-0.049752	1.751022
59.636090	581.889270	0.265250	-0.049957	1.760470
60.356206	592.989750	0.270255	-0.050095	1.769853
60.901775	604.051457	0.275260	-0.050200	1.779103
61.947475	614.999232	0.280265	-0.050399	1.788356
62.847279	626.084050	0.285269	-0.050570	1.797631
63.404908	637.167704	0.290274	-0.050678	1.806760
64.055111	648.194194	0.295279	-0.050802	1.815822
64.690605	659.216900	0.300283	-0.050924	1.824833
65.344027	670.286626	0.305288	-0.051050	1.833841
65.993223	681.307540	0.310293	-0.051174	1.842765
66.759498	692.319180	0.315298	-0.051321	1.851670
67.429149	703.383306	0.320302	-0.051449	1.860547
68.018382	714.434646	0.325307	-0.051562	1.869350
68.618019	725.442569	0.330312	-0.051678	1.878081
69.382893	736.490652	0.335317	-0.051824	1.886846
70.305454	747.469684	0.340321	-0.052000	1.895560
71.125066	758.527706	0.345326	-0.052156	1.904266
71.827789	769.589683	0.350331	-0.052291	1.912904
72.598893	780.625230	0.355335	-0.052438	1.921502
73.024028	791.698531	0.360340	-0.052521	1.929998
74.013303	802.615279	0.365345	-0.052709	1.938486
75.090179	813.696368	0.370350	-0.052914	1.947083
75.768471	824.753203	0.375354	-0.053044	1.955521
76.404785	835.784400	0.380359	-0.053166	1.963892
77.345183	846.781066	0.385364	-0.053345	1.972279
78.466059	857.813932	0.390369	-0.053558	1.980703
79.261260	868.871596	0.395373	-0.053710	1.989027
79.976903	879.913746	0.400378	-0.053847	1.997284
80.826113	890.941905	0.405383	-0.054009	2.005531
81.487407	901.975693	0.410387	-0.054136	2.013700
82.437625	912.978321	0.415392	-0.054317	2.021885
83.188065	924.050780	0.420397	-0.054461	2.030038
83.793797	935.089020	0.425402	-0.054577	2.038098
84.674029	946.091757	0.430406	-0.054745	2.046168
85.367403	957.145766	0.435411	-0.054878	2.054196
85.826906	968.180377	0.440416	-0.054967	2.062123
86.731205	979.187998	0.445421	-0.055139	2.070107
87.436956	990.220859	0.450425	-0.055274	2.078030
88.106560	1001.281383	0.455430	-0.055403	2.085934
88.691969	1012.314287	0.460435	-0.055515	2.093769
89.417403	1023.305510	0.465439	-0.055654	2.101578
90.044114	1034.363992	0.470444	-0.055775	2.109381
90.601601	1045.418082	0.475449	-0.055882	2.117136
91.299025	1056.417310	0.480454	-0.056016	2.124857
92.045955	1067.430549	0.485458	-0.056158	2.132571
92.874116	1078.452474	0.490463	-0.056317	2.140282
93.767336	1089.482830	0.495468	-0.056487	2.147985
94.383877	1100.545319	0.500472	-0.056605	2.155619
94.928278	1111.587054	0.505477	-0.056710	2.163195
95.377018	1122.620597	0.510482	-0.056797	2.170718
96.210523	1133.592280	0.515487	-0.056956	2.178260
97.038030	1144.636644	0.520491	-0.057114	2.185822
97.570292	1155.695714	0.525496	-0.057217	2.193302
97.985151	1166.734481	0.530501	-0.057297	2.200717
98.660102	1177.722771	0.535506	-0.057427	2.208131
99.414783	1188.753467	0.540510	-0.057571	2.215565
100.240922	1199.731383	0.545515	-0.057729	2.222956
100.978608	1210.815175	0.550520	-0.057870	2.230371
101.527359	1221.849935	0.555524	-0.057976	2.237688
102.257859	1232.862804	0.560529	-0.058116	2.245007
102.846013	1243.884496	0.565534	-0.058229	2.252276
103.500456	1254.948473	0.570539	-0.058354	2.259564
104.023136	1265.941036	0.575543	-0.058455	2.266753
104.420076	1277.005024	0.580548	-0.058532	2.273939
105.019821	1287.990113	0.585553	-0.058647	2.281094
105.578664	1299.020403	0.590558	-0.058755	2.288247
106.111025	1310.064216	0.595562	-0.058858	2.295381
106.861135	1321.051582	0.600567	-0.059001	2.302502
107.451128	1332.098467	0.605572	-0.059115	2.309605
107.843334	1343.144493	0.610576	-0.059191	2.316644
108.294240	1354.172419	0.615581	-0.059278	2.323663
109.253276	1365.111155	0.620586	-0.059461	2.330709
110.102674	1376.194255	0.625591	-0.059623	2.337802
110.662991	1387.230924	0.630595	-0.059731	2.344785
111.269966	1398.233543	0.635600	-0.059847	2.351735
111.796274	1409.273582	0.640605	-0.059949	2.358671
112.624002	1420.268747	0.645610	-0.060107	2.365620
113.109823	1431.355653	0.650614	-0.060201	2.372535
113.393970	1442.373082	0.655619	-0.060257	2.379347
114.084678	1453.339562	0.660624	-0.060389	2.386190
114.801515	1464.383341	0.665628	-0.060527	2.393066
115.697555	1475.365346	0.670633	-0.060697	2.399920
116.236208	1486.467826	0.675638	-0.060801	2.406756
116.891527	1497.459151	0.680643	-0.060927	2.413528
117.358220	1508.501903	0.685647	-0.061017	2.420275
117.924555	1519.508952	0.690652	-0.061126	2.427001
118.466414	1530.545494	0.695657	-0.061231	2.433722
118.970380	1541.554084	0.700661	-0.061328	2.440399
119.559705	1552.574880	0.705666	-0.061441	2.447082
120.438875	1563.594682	0.710671	-0.061609	2.453802
120.712554	1574.645399	0.715676	-0.061663	2.460405
121.200611	1585.652667	0.720680	-0.061757	2.467006
121.670308	1596.704599	0.725685	-0.061848	2.473612
122.408375	1607.657216	0.730690	-0.061989	2.480192
122.936611	1618.733777	0.735695	-0.062091	2.486788
123.401884	1629.768758	0.740699	-0.062181	2.493330
123.934080	1640.739878	0.745704	-0.062284	2.499830
124.632755	1651.776642	0.750709	-0.062418	2.506383
125.230020	1662.828458	0.755713	-0.062532	2.512908
125.642213	1673.839022	0.760718	-0.062613	2.519357
126.254168	1684.830610	0.765723	-0.062730	2.525817
126.984790	1695.869620	0.770728	-0.062870	2.532308
127.423756	1706.903374	0.775732	-0.062955	2.538726
127.880737	1717.917846	0.780737	-0.063043	2.545120
128.692229	1728.923619	0.785742	-0.063198	2.551558
129.111864	1739.987900	0.790747	-0.063280	2.557941
129.496869	1750.994224	0.795751	-0.063355	2.564269
130.016671	1762.019975	0.800756	-0.063455	2.570616
130.488521	1773.075279	0.805761	-0.063546	2.576956
130.877902	1784.075233	0.810765	-0.063622	2.583234
131.415019	1795.080141	0.815770	-0.063726	2.589526
131.895016	1806.088536	0.820775	-0.063819	2.595794
132.385046	1817.117921	0.825780	-0.063913	2.602060
132.779939	1828.137567	0.830784	-0.063990	2.608289
133.461355	1839.151497	0.835789	-0.064121	2.614551
133.865248	1850.167746	0.840794	-0.064199	2.620749
134.415049	1861.194267	0.845799	-0.064305	2.626965
135.140187	1872.213000	0.850803	-0.064444	2.633192
135.613319	1883.242444	0.855808	-0.064535	2.639365
136.154232	1894.247306	0.860813	-0.064640	2.645523
136.922286	1905.288868	0.865817	-0.064786	2.651726
137.059758	1916.344734	0.870822	-0.064815	2.657812
137.682713	1927.295112	0.875827	-0.064935	2.663911
138.109901	1938.348857	0.880832	-0.065017	2.670018
138.821847	1949.356181	0.885836	-0.065154	2.676135
139.219036	1960.389020	0.890841	-0.065231	2.682198
139.949932	1971.378282	0.895846	-0.065371	2.688280
140.298597	1982.441172	0.900850	-0.065439	2.694323
140.835945	1993.448448	0.905855	-0.065543	2.700354
141.406771	2004.460620	0.910860	-0.065652	2.706380
142.053389	2015.485280	0.915865	-0.065776	2.712412
142.460749	2026.513741	0.920869	-0.065856	2.718393
143.267162	2037.487257	0.925874	-0.066010	2.724397
143.647523	2048.565243	0.930879	-0.066084	2.730373
144.061011	2059.559580	0.935884	-0.066164	2.736296
144.508338	2070.561786	0.940888	-0.066251	2.742216
144.964738	2081.582550	0.945893	-0.066339	2.748135
145.556760	2092.588793	0.950898	-0.066453	2.754056
146.000860	2103.652057	0.955902	-0.066539	2.759969
146.420297	2114.630423	0.960907	-0.066620	2.765821
147.023735	2125.673895	0.965912	-0.066736	2.771725
147.439110	2136.676316	0.970917	-0.066817	2.777563
148.040429	2147.689916	0.975921	-0.066933	2.783426
148.481709	2158.723393	0.980926	-0.067018	2.789260
149.157517	2169.731650	0.985931	-0.067148	2.795107
149.574949	2180.771877	0.990936	-0.067229	2.800917
149.976415	2191.794129	0.995940	-0.067307	2.806702
150.385309	2202.822835	1.000945	-0.067386	2.812480
150.909152	2213.800448	1.005950	-0.067487	2.818238
151.348921	2224.835632	1.010954	-0.067573	2.824000
151.686685	2235.884729	1.015959	-0.067639	2.829741
152.070177	2246.875647	1.020964	-0.067713	2.835448
152.695931	2257.891274	1.025969	-0.067833	2.841195
153.236418	2268.923246	1.030973	-0.067938	2.846924
153.680175	2279.931974	1.035978	-0.068024	2.852615
153.963111	2290.960545	1.040983	-0.068079	2.858279
154.618343	2301.959019	1.045988	-0.068205	2.863975
155.072956	2312.994955	1.050992	-0.068293	2.869647
155.705183	2324.010526	1.055997	-0.068414	2.875325
156.259683	2335.022984	1.061002	-0.068521	2.880978
156.812712	2346.066233	1.066006	-0.068628	2.886635
157.188899	2357.076652	1.071011	-0.068701	2.892237
157.652314	2368.081592	1.076016	-0.068791	2.897839
158.171241	2379.100151	1.081021	-0.068891	2.903445
158.762469	2390.097345	1.086025	-0.069005	2.909041
159.234430	2401.167128	1.091030	-0.069096	2.914644
159.473348	2412.179926	1.096035	-0.069143	2.920172
160.242353	2423.151880	1.101039	-0.069290	2.925749
160.796777	2434.221550	1.106044	-0.069397	2.931332
161.305087	2445.188309	1.111049	-0.069495	2.936846
161.689451	2456.247947	1.116054	-0.069570	2.942377
161.957452	2467.266666	1.121058	-0.069623	2.947860
162.255151	2478.278842	1.126063	-0.069682	2.953334
162.723837	2489.288663	1.131068	-0.069772	2.958822
163.182200	2500.320036	1.136073	-0.069861	2.964308
163.825800	2511.326665	1.141077	-0.069985	2.969800
164.420380	2522.344280	1.146082	-0.070099	2.975279
164.695582	2533.363297	1.151087	-0.070153	2.980702
165.217743	2544.394387	1.156091	-0.070254	2.986157
165.533575	2555.416458	1.161096	-0.070316	2.991568
166.112390	2566.403004	1.166101	-0.070427	2.996989
166.402262	2577.455563	1.171106	-0.070484	3.002391
166.854545	2588.464816	1.176110	-0.070572	3.007785
167.319558	2599.460777	1.181115	-0.070662	3.013166
167.820703	2610.498495	1.186120	-0.070759	3.018561
168.358192	2621.498278	1.191125	-0.070862	3.023934
168.944259	2632.525173	1.196129	-0.070975	3.029318
169.265227	2643.555680	1.201134	-0.071038	3.034655
169.583234	2654.584008	1.206139	-0.071100	3.039981
169.857562	2665.596013	1.211143	-0.071155	3.045284
170.548318	2676.605119	1.216148	-0.071287	3.050636
170.937586	2687.611758	1.221153	-0.071363	3.055934
171.409626	2698.640947	1.226158	-0.071454	3.061245
171.695987	2709.656026	1.231162	-0.071510	3.066514
172.308350	2720.653751	1.236167	-0.071628	3.071811
172.593826	2731.707808	1.241172	-0.071684	3.077080
172.888403	2742.722189	1.246177	-0.071742	3.082323
173.483858	2753.707158	1.251181	-0.071857	3.087584
174.352776	2764.714436	1.256186	-0.072023	3.092885
174.729953	2775.762870	1.261191	-0.072096	3.098128
175.292814	2786.762390	1.266195	-0.072204	3.103365
175.774310	2797.797039	1.271200	-0.072298	3.108597
176.326529	2808.804599	1.276205	-0.072404	3.113818
176.601959	2819.847595	1.281210	-0.072458	3.119009
177.058254	2830.850159	1.286214	-0.072547	3.124197
177.512596	2841.874760	1.291219	-0.072635	3.129386
177.994178	2852.883919	1.296224	-0.072728	3.134563
178.094612	2863.913461	1.301228	-0.072749	3.139689
178.688975	2874.918678	1.306233	-0.072864	3.144862
179.076209	2885.950395	1.311238	-0.072939	3.150011
179.379339	2896.964146	1.316243	-0.072999	3.155131
179.690152	2907.987764	1.321247	-0.073060	3.160249
180.161793	2918.984099	1.326252	-0.073151	3.165368
180.881545	2929.986446	1.331257	-0.073289	3.170514
181.269106	2941.006477	1.336262	-0.073364	3.175615
181.574892	2952.056772	1.341266	-0.073424	3.180711
182.218414	2963.043550	1.346271	-0.073548	3.185815
182.634014	2974.072878	1.351276	-0.073628	3.190899
183.137978	2985.102196	1.356280	-0.073726	3.195987
183.322762	2996.120960	1.361285	-0.073763	3.201020
183.763744	3007.143811	1.366290	-0.073849	3.206081
184.041872	3018.152250	1.371295	-0.073903	3.211105
184.397595	3029.165511	1.376299	-0.073973	3.216134
184.655314	3040.174809	1.381304	-0.074024	3.221141
185.318279	3051.183932	1.386309	-0.074151	3.226192
185.833272	3062.209131	1.391314	-0.074250	3.231223
186.110263	3073.231451	1.396318	-0.074305	3.236214
186.475510	3084.238090	1.401323	-0.074376	3.241202
186.980352	3095.272928	1.406328	-0.074474	3.246212
187.452406	3106.271883	1.411332	-0.074565	3.251195
187.906631	3117.286299	1.416337	-0.074653	3.256174
188.338067	3128.312644	1.421342	-0.074737	3.261148
188.682578	3139.331983	1.426347	-0.074804	3.266100
189.023053	3150.355496	1.431351	-0.074871	3.271046
189.359235	3161.381783	1.436356	-0.074937	3.275985
189.833069	3172.352040	1.441361	-0.075028	3.280909
190.493218	3183.406944	1.446366	-0.075155	3.285886
190.805295	3194.417728	1.451370	-0.075216	3.290793
191.256169	3205.430639	1.456375	-0.075303	3.295710
191.675041	3216.442587	1.461380	-0.075385	3.300616
192.260759	3227.458155	1.466384	-0.075497	3.305536
192.765857	3238.475852	1.471389	-0.075595	3.310441
193.017893	3249.517127	1.476394	-0.075645	3.315316
193.498242	3260.514711	1.481399	-0.075738	3.320194
193.817091	3271.535225	1.486403	-0.075800	3.325054
193.969879	3282.568915	1.491408	-0.075832	3.329892
194.480230	3293.565410	1.496413	-0.075930	3.334752
194.809182	3304.574233	1.501417	-0.075995	3.339587
195.351518	3315.604035	1.506422	-0.076099	3.344450
195.791518	3326.622316	1.511427	-0.076184	3.349288
195.945313	3337.641393	1.516432	-0.076216	3.354085
196.414952	3348.638428	1.521436	-0.076307	3.358904
196.762202	3359.670069	1.526441	-0.076375	3.363716
197.217370	3370.678995	1.531446	-0.076463	3.368524
197.602238	3381.691119	1.536451	-0.076538	3.373318
197.964358	3392.723454	1.541455	-0.076609	3.378111
198.402279	3403.720891	1.546460	-0.076693	3.382892
198.671572	3414.746327	1.551465	-0.076747	3.387657
199.046282	3425.772076	1.556469	-0.076820	3.392429
199.435270	3436.774715	1.561474	-0.076895	3.397185
199.726237	3447.805740	1.566479	-0.076953	3.401935
200.173385	3458.805500	1.571484	-0.077039	3.406684
200.532895	3469.845314	1.576488	-0.077110	3.411432
200.933058	3480.830896	1.581493	-0.077187	3.416156
201.306363	3491.877708	1.586498	-0.077260	3.420896
201.631406	3502.874044	1.591503	-0.077324	3.425602
202.023589	3513.898245	1.596507	-0.077400	3.430321
202.191127	3524.924633	1.601512	-0.077434	3.435008
202.546219	3535.923481	1.606517	-0.077504	3.439700
203.097171	3546.945244	1.611521	-0.077610	3.444417
203.475885	3557.990683	1.616526	-0.077684	3.449117
203.927961	3568.940145	1.621531	-0.077771	3.453779
204.333316	3580.010522	1.626536	-0.077850	3.458480
204.670299	3590.981137	1.631540	-0.077916	3.463125
205.020736	3602.040607	1.636545	-0.077984	3.467803
205.384703	3613.012413	1.641550	-0.078055	3.472438
205.846390	3624.065935	1.646555	-0.078145	3.477113
206.185217	3635.077754	1.651559	-0.078211	3.481750
206.373473	3646.105890	1.656564	-0.078249	3.486371
206.622075	3657.088904	1.661569	-0.078299	3.490973
207.002685	3668.116104	1.666573	-0.078373	3.495603
207.367232	3679.122028	1.671578	-0.078444	3.500216
207.655685	3690.186050	1.676583	-0.078501	3.504838
207.986969	3701.161340	1.681588	-0.078566	3.509422
208.273415	3712.210243	1.686592	-0.078622	3.514025
208.587425	3723.213523	1.691597	-0.078684	3.518607
209.026403	3734.218115	1.696602	-0.078769	3.523197
209.689638	3745.219398	1.701606	-0.078896	3.527804
209.984401	3756.269735	1.706611	-0.078954	3.532385
210.314486	3767.247652	1.711616	-0.079019	3.536934
210.804304	3778.279988	1.716621	-0.079113	3.541516
211.152669	3789.294212	1.721625	-0.079181	3.546070
211.682166	3800.301761	1.726630	-0.079283	3.550635
211.973039	3811.324540	1.731635	-0.079341	3.555174
212.540672	3822.333438	1.736640	-0.079450	3.559732
212.864187	3833.364842	1.741644	-0.079513	3.564267
213.120320	3844.394090	1.746649	-0.079564	3.568787
213.386735	3855.393343	1.751654	-0.079617	3.573290
213.897449	3866.409986	1.756658	-0.079716	3.577822
214.190731	3877.400451	1.761663	-0.079773	3.582313
214.559391	3888.461229	1.766668	-0.079845	3.586835
214.819680	3899.453200	1.771673	-0.079897	3.591312
215.292478	3910.479191	1.776677	-0.079988	3.595820
215.686791	3921.465987	1.781682	-0.080065	3.600298
216.308713	3932.508766	1.786687	-0.080184	3.604817
216.609329	3943.516828	1.791692	-0.080243	3.609282
216.974303	3954.533424	1.796696	-0.080315	3.613752
217.213892	3965.569895	1.801701	-0.080362	3.618211
217.496666	3976.583885	1.806706	-0.080418	3.622660
217.789121	3987.570918	1.811710	-0.080476	3.627093
218.272714	3998.592357	1.816715	-0.080569	3.631555
218.497073	4009.624855	1.821720	-0.080614	3.635989
219.049742	4020.606668	1.826725	-0.080720	3.640431
219.423520	4031.649343	1.831729	-0.080793	3.644873
219.818506	4042.657907	1.836734	-0.080870	3.649299
220.188264	4053.674230	1.841739	-0.080942	3.653719
220.597461	4064.689188	1.846744	-0.081022	3.658138
220.871522	4075.725590	1.851748	-0.081076	3.662545
221.143274	4086.739088	1.856753	-0.081130	3.666938
221.394876	4097.753927	1.861758	-0.081180	3.671324
221.806966	4108.823324	1.866762	-0.081260	3.675743
222.079163	4119.814651	1.871767	-0.081313	3.680112
222.518651	4130.826490	1.876772	-0.081399	3.684500
222.734207	4141.852096	1.881777	-0.081442	3.688865
223.084500	4152.843309	1.886781	-0.081510	3.693226
223.398027	4163.897884	1.891786	-0.081572	3.697602
223.897679	4174.885839	1.896791	-0.081668	3.701966
224.102075	4185.916508	1.901795	-0.081709	3.706312
224.445926	4196.923500	1.906800	-0.081777	3.710657
224.801499	4207.932686	1.911805	-0.081846	3.714999
225.259774	4218.931805	1.916810	-0.081935	3.719342
225.434624	4229.992303	1.921814	-0.081970	3.723676
225.876950	4240.981857	1.926819	-0.082056	3.728004
226.145886	4252.021065	1.931824	-0.082109	3.732328
226.564617	4263.041319	1.936829	-0.082191	3.736655
226.782703	4274.001458	1.941833	-0.082234	3.740934
227.236111	4285.063877	1.946838	-0.082322	3.745271
227.474984	4296.052478	1.951843	-0.082370	3.749553
227.791289	4307.089761	1.956847	-0.082432	3.753856
227.939033	4318.084407	1.961852	-0.082462	3.758121
228.449079	4329.115037	1.966857	-0.082561	3.762431
