Wed Nov 23 19:25:19 2022

Number of Points = 2200
Depth (nm)	Load (µN)	Time (s)	Depth (V)	Load (V)
-4.062156	1.382316	0.000000	-0.055940	1.200204
0.000000	7.902489	0.005005	-0.056704	1.209890
4.325595	17.391724	0.010009	-0.057518	1.223155
8.133665	28.336920	0.015014	-0.058235	1.237766
10.589721	39.655880	0.020019	-0.058699	1.252065
12.444934	50.931005	0.025024	-0.059050	1.265897
13.788299	62.137085	0.030028	-0.059305	1.279287
15.009071	73.276698	0.035033	-0.059536	1.292413
15.816594	84.492450	0.040038	-0.059691	1.305323
16.730878	95.538282	0.045043	-0.059865	1.317961
17.626952	106.573663	0.050047	-0.060036	1.330459
19.206536	117.557550	0.055052	-0.060335	1.343055
20.364827	128.704455	0.060057	-0.060555	1.355543
21.428605	139.801789	0.065061	-0.060757	1.367827
22.806379	150.780721	0.070066	-0.061019	1.379996
24.260957	161.891181	0.075071	-0.061294	1.392224
25.497211	172.980819	0.080076	-0.061529	1.404242
26.503933	184.111858	0.085080	-0.061721	1.416114
27.709399	195.128456	0.090085	-0.061950	1.427843
28.813995	206.224792	0.095090	-0.062160	1.439520
29.624312	217.332540	0.100094	-0.062314	1.451008
30.710256	228.378459	0.105099	-0.062521	1.462441
31.553454	239.450837	0.110104	-0.062682	1.473726
32.364572	250.542785	0.115109	-0.062837	1.484932
33.236511	261.565190	0.120113	-0.063003	1.496007
34.760262	272.522110	0.125118	-0.063292	1.507163
35.889620	283.647847	0.130123	-0.063506	1.518263
36.782000	294.763653	0.135128	-0.063677	1.529191
37.695435	305.802892	0.140132	-0.063851	1.539975
38.749055	316.836459	0.145137	-0.064051	1.550726
39.532188	327.956547	0.150142	-0.064201	1.561393
40.422328	338.976943	0.155146	-0.064371	1.571930
41.475950	349.988939	0.160151	-0.064571	1.582442
42.690359	361.025392	0.165156	-0.064802	1.592960
43.516586	372.153489	0.170161	-0.064960	1.603365
44.263517	383.224808	0.175165	-0.065102	1.613626
44.830287	394.297026	0.180170	-0.065212	1.623765
45.700453	405.283763	0.185175	-0.065378	1.633860
46.627071	416.321145	0.190180	-0.065554	1.643956
47.329333	427.417055	0.195184	-0.065689	1.653972
47.981143	438.466892	0.200189	-0.065814	1.663870
48.579583	449.515035	0.205194	-0.065929	1.673692
49.231722	460.571788	0.210198	-0.066054	1.683480
49.873160	471.601564	0.215203	-0.066177	1.693185
50.478188	482.660903	0.220208	-0.066293	1.702848
51.303591	493.664830	0.225213	-0.066451	1.712476
52.111914	504.707558	0.230217	-0.066605	1.722077
52.778943	515.768849	0.235222	-0.066733	1.731598
53.567857	526.783565	0.240227	-0.066884	1.741064
54.403603	537.830111	0.245232	-0.067043	1.750518
55.200499	548.863326	0.250236	-0.067196	1.759899
55.924513	559.946098	0.255241	-0.067334	1.769250
56.649643	570.970510	0.260246	-0.067473	1.778503
57.289531	582.012198	0.265250	-0.067596	1.787698
58.012150	593.048071	0.270255	-0.067734	1.796864
58.759941	604.079041	0.275260	-0.067877	1.805987
59.544055	615.125716	0.280265	-0.068027	1.815086
60.155898	626.182593	0.285269	-0.068145	1.824100
60.861803	637.197101	0.290274	-0.068280	1.833061
61.368227	648.273657	0.295279	-0.068378	1.841973
62.094023	659.266574	0.300283	-0.068516	1.850835
63.054504	670.292513	0.305288	-0.068699	1.859745
63.726019	681.362802	0.310293	-0.068828	1.868569
64.569800	692.348062	0.315298	-0.068989	1.877331
65.208900	703.455357	0.320302	-0.069112	1.886091
65.912776	714.450954	0.325307	-0.069247	1.894742
66.628449	725.490629	0.330312	-0.069384	1.903390
67.349409	736.542754	0.335317	-0.069522	1.912009
67.850058	747.582832	0.340321	-0.069618	1.920523
68.525421	758.613329	0.345326	-0.069748	1.929037
69.135070	769.658378	0.350331	-0.069865	1.937507
69.972613	780.622920	0.355335	-0.070025	1.945939
70.443749	791.746454	0.360340	-0.070116	1.954359
70.969491	802.742180	0.365345	-0.070217	1.962661
71.745158	813.768115	0.370350	-0.070366	1.971014
72.229811	824.813854	0.375354	-0.070459	1.979272
72.991236	835.816129	0.380359	-0.070605	1.987533
73.969365	846.845388	0.385364	-0.070791	1.995835
74.563832	857.890412	0.390369	-0.070905	2.004017
75.105764	868.970058	0.395373	-0.071010	2.012177
75.447004	880.005554	0.400378	-0.071077	2.020223
76.174505	890.966559	0.405383	-0.071216	2.028278
76.802521	902.040787	0.410387	-0.071336	2.036358
77.558178	913.041086	0.415392	-0.071481	2.044384
78.117473	924.103734	0.420397	-0.071589	2.052375
78.553881	935.164831	0.425402	-0.071673	2.060304
79.206887	946.135723	0.430406	-0.071799	2.068191
79.935405	957.173021	0.435411	-0.071938	2.076112
80.616063	968.190803	0.440416	-0.072068	2.083978
81.445187	979.230811	0.445421	-0.072227	2.091865
82.091562	990.262466	0.450425	-0.072351	2.099673
82.636267	1001.309693	0.455430	-0.072456	2.107438
82.988659	1012.364840	0.460435	-0.072525	2.115135
83.673756	1023.328151	0.465439	-0.072656	2.122819
84.503902	1034.381825	0.470444	-0.072814	2.130570
85.272117	1045.420481	0.475449	-0.072961	2.138268
85.765972	1056.446976	0.480454	-0.073057	2.145867
86.349076	1067.493906	0.485458	-0.073169	2.153473
87.166970	1078.474443	0.490463	-0.073325	2.161061
88.030211	1089.527930	0.495468	-0.073490	2.168681
88.249596	1100.626096	0.500472	-0.073534	2.176159
88.980101	1111.576892	0.505477	-0.073673	2.183628
89.406829	1122.644839	0.510482	-0.073756	2.191081
89.893162	1133.658241	0.515487	-0.073850	2.198485
90.572029	1144.673768	0.520491	-0.073980	2.205909
91.313441	1155.672597	0.525496	-0.074122	2.213310
92.168584	1166.716174	0.530501	-0.074285	2.220741
92.520839	1177.796859	0.535506	-0.074354	2.228061
92.842707	1188.815349	0.540510	-0.074417	2.235309
93.347490	1199.815406	0.545515	-0.074515	2.242562
93.984570	1210.817571	0.550520	-0.074637	2.249821
94.754659	1221.874654	0.555524	-0.074784	2.257121
95.112210	1232.921144	0.560529	-0.074854	2.264301
95.651981	1243.904684	0.565534	-0.074958	2.271457
96.070372	1254.966451	0.570539	-0.075039	2.278615
96.635340	1265.965531	0.575543	-0.075148	2.285741
97.276605	1276.968812	0.580548	-0.075271	2.292864
97.948647	1288.013925	0.585553	-0.075400	2.299997
98.253771	1299.053616	0.590558	-0.075460	2.307028
98.831650	1310.099045	0.595562	-0.075571	2.314098
99.267988	1321.095297	0.600567	-0.075656	2.321086
100.047490	1332.091144	0.605572	-0.075805	2.328123
100.575180	1343.167055	0.610576	-0.075906	2.335137
100.945575	1354.173481	0.615581	-0.075979	2.342054
101.299239	1365.210503	0.620586	-0.076048	2.348966
101.923589	1376.207125	0.625591	-0.076168	2.355889
102.389204	1387.239227	0.630595	-0.076258	2.362780
102.950632	1398.280822	0.635600	-0.076366	2.369676
103.538760	1409.282860	0.640605	-0.076479	2.376533
104.009757	1420.334141	0.645610	-0.076570	2.383377
104.286163	1431.347414	0.650614	-0.076625	2.390139
104.957837	1442.355860	0.655619	-0.076753	2.396957
105.572223	1453.396913	0.660624	-0.076871	2.403765
106.094504	1464.395570	0.665628	-0.076972	2.410509
106.535227	1475.437503	0.670633	-0.077057	2.417244
106.888089	1486.490995	0.675638	-0.077126	2.423950
107.343684	1497.472318	0.680643	-0.077215	2.430614
107.801893	1508.502200	0.685647	-0.077303	2.437290
108.408403	1519.522449	0.690652	-0.077420	2.443970
109.066256	1530.543578	0.695657	-0.077546	2.450642
109.545769	1541.564395	0.700661	-0.077639	2.457261
110.065486	1552.594871	0.705666	-0.077739	2.463875
110.333394	1563.645105	0.710671	-0.077792	2.470435
110.670821	1574.654080	0.715676	-0.077858	2.476967
111.231073	1585.680773	0.720680	-0.077966	2.483534
111.799874	1596.671303	0.725685	-0.078075	2.490064
112.063446	1607.736605	0.730690	-0.078128	2.496563
112.468267	1618.758467	0.735695	-0.078206	2.503046
112.892598	1629.732005	0.740699	-0.078289	2.509488
113.533276	1640.766262	0.745704	-0.078412	2.515989
114.039982	1651.805803	0.750709	-0.078509	2.522451
114.679373	1662.811158	0.755713	-0.078632	2.528901
114.924932	1673.873711	0.760718	-0.078681	2.535295
115.360005	1684.863042	0.765723	-0.078765	2.541665
115.913352	1695.881888	0.770728	-0.078872	2.548058
116.688744	1706.879969	0.775732	-0.079020	2.554464
117.010336	1717.950012	0.780737	-0.079083	2.560811
117.555122	1728.955046	0.785742	-0.079188	2.567146
117.870068	1740.018376	0.790747	-0.079250	2.573457
118.099447	1751.049432	0.795751	-0.079296	2.579719
118.426960	1762.025885	0.800756	-0.079360	2.585952
119.001583	1773.017585	0.805761	-0.079470	2.592223
119.450080	1784.078141	0.810765	-0.079557	2.598495
119.954586	1795.071458	0.815770	-0.079655	2.604724
120.306897	1806.109220	0.820775	-0.079723	2.610936
120.810999	1817.113529	0.825780	-0.079821	2.617141
121.842873	1828.097120	0.830784	-0.080017	2.623413
122.394964	1839.142169	0.835789	-0.080123	2.629619
122.748193	1850.213298	0.840794	-0.080192	2.635790
122.899795	1861.219067	0.845799	-0.080224	2.641875
123.196428	1872.251038	0.850803	-0.080282	2.647986
123.842132	1883.219555	0.855808	-0.080406	2.654109
124.317001	1894.291837	0.860813	-0.080498	2.660244
124.616287	1905.283161	0.865817	-0.080557	2.666291
125.121404	1916.326041	0.870822	-0.080654	2.672387
125.490182	1927.316428	0.875827	-0.080726	2.678418
126.205778	1938.316021	0.880832	-0.080863	2.684499
126.812434	1949.363716	0.885836	-0.080980	2.690573
127.318672	1960.403908	0.890841	-0.081077	2.696613
127.579803	1971.427614	0.895846	-0.081129	2.702588
127.883014	1982.458745	0.900850	-0.081189	2.708561
128.365867	1993.430728	0.905855	-0.081282	2.714520
129.039152	2004.440141	0.910860	-0.081411	2.720517
129.550986	2015.494897	0.915865	-0.081510	2.726499
129.849950	2026.553217	0.920869	-0.081569	2.732433
130.002741	2037.525173	0.925874	-0.081600	2.738284
130.494866	2048.562667	0.930879	-0.081695	2.744214
130.984347	2059.535630	0.935884	-0.081790	2.750096
131.534789	2070.549800	0.940888	-0.081896	2.755997
131.889841	2081.598781	0.945893	-0.081965	2.761872
132.225135	2092.627919	0.950898	-0.082031	2.767720
132.665370	2103.626058	0.955902	-0.082116	2.773557
133.143486	2114.621785	0.960907	-0.082208	2.779387
133.765953	2125.646007	0.965912	-0.082328	2.785242
134.507245	2136.676491	0.970917	-0.082470	2.791107
134.823519	2147.718094	0.975921	-0.082532	2.796897
135.218196	2158.723712	0.980926	-0.082609	2.802669
135.766352	2169.736961	0.985931	-0.082714	2.808458
136.186865	2180.766522	0.990936	-0.082796	2.814222
136.923973	2191.756485	0.995940	-0.082937	2.820005
137.301530	2202.812327	1.000945	-0.083011	2.825752
137.733784	2213.829211	1.005950	-0.083094	2.831476
138.059286	2224.851811	1.010954	-0.083158	2.837175
138.467802	2235.851225	1.015959	-0.083238	2.842863
139.265607	2246.846440	1.020964	-0.083390	2.848599
139.768208	2257.904615	1.025969	-0.083487	2.854309
140.081273	2268.934922	1.030973	-0.083548	2.859963
140.502381	2279.927782	1.035978	-0.083630	2.865604
141.048369	2290.968102	1.040983	-0.083735	2.871278
141.518396	2301.966340	1.045988	-0.083826	2.876907
142.056207	2312.977707	1.050992	-0.083930	2.882542
142.437622	2324.024925	1.055997	-0.084004	2.888159
142.746755	2335.080097	1.061002	-0.084065	2.893759
143.009797	2346.035206	1.066006	-0.084117	2.899291
143.495754	2357.057882	1.071011	-0.084211	2.904879
144.270303	2368.064510	1.076016	-0.084359	2.910493
144.659716	2379.118960	1.081021	-0.084435	2.916061
145.275657	2390.104128	1.086025	-0.084553	2.921618
145.532473	2401.167147	1.091030	-0.084604	2.927149
145.856384	2412.135169	1.096035	-0.084668	2.932633
146.398883	2423.179129	1.101039	-0.084772	2.938176
146.872330	2434.186363	1.106044	-0.084864	2.943680
147.100750	2445.254652	1.111049	-0.084909	2.949168
147.337961	2456.241404	1.116054	-0.084956	2.954606
147.655669	2467.260006	1.121058	-0.085019	2.960062
148.320153	2478.260339	1.126063	-0.085146	2.965551
148.910551	2489.295841	1.131068	-0.085260	2.971035
149.302864	2500.319893	1.136073	-0.085336	2.976474
149.449458	2511.338455	1.141077	-0.085366	2.981864
149.662083	2522.359201	1.146082	-0.085409	2.987256
149.869979	2533.377062	1.151087	-0.085451	2.992635
150.524362	2544.348706	1.156091	-0.085576	2.998048
151.048394	2555.400017	1.161096	-0.085677	3.003470
151.505857	2566.423876	1.166101	-0.085766	3.008859
151.757720	2577.457571	1.171106	-0.085816	3.014213
152.336152	2588.419391	1.176110	-0.085927	3.019571
153.076980	2599.447165	1.181115	-0.086069	3.024973
153.721582	2610.502032	1.186120	-0.086193	3.030365
154.040330	2621.520989	1.191125	-0.086255	3.035684
154.228976	2632.548001	1.196129	-0.086293	3.040979
154.634748	2643.539019	1.201134	-0.086372	3.046278
154.938499	2654.574694	1.206139	-0.086432	3.051574
155.311765	2665.572414	1.211143	-0.086505	3.056853
155.844902	2676.579674	1.216148	-0.086607	3.062150
156.021545	2687.640308	1.221153	-0.086643	3.067413
156.266089	2698.626004	1.226158	-0.086692	3.072640
156.807478	2709.644169	1.231162	-0.086796	3.077916
157.420140	2720.632248	1.236167	-0.086914	3.083178
157.855902	2731.709927	1.241172	-0.086998	3.088449
158.236314	2742.690228	1.246177	-0.087072	3.093657
158.621627	2753.739330	1.251181	-0.087147	3.098889
158.937040	2764.723928	1.256186	-0.087209	3.104072
159.353660	2775.768365	1.261191	-0.087290	3.109289
159.707016	2786.763285	1.266195	-0.087359	3.114465
160.191845	2797.813453	1.271200	-0.087453	3.119676
160.415256	2808.816081	1.276205	-0.087498	3.124820
160.790045	2819.841890	1.281210	-0.087571	3.129987
161.184173	2830.830750	1.286214	-0.087647	3.135132
161.744661	2841.875238	1.291219	-0.087755	3.140315
162.050305	2852.856010	1.296224	-0.087815	3.145427
162.534521	2863.897755	1.301228	-0.087909	3.150582
162.943907	2874.907945	1.306233	-0.087988	3.155704
163.334589	2885.946663	1.311238	-0.088064	3.160828
163.822421	2896.927760	1.316243	-0.088159	3.165930
164.504490	2907.959322	1.321247	-0.088289	3.171073
164.777538	2918.975887	1.326252	-0.088343	3.176146
165.319088	2929.990643	1.331257	-0.088448	3.181246
165.692931	2941.023567	1.336262	-0.088521	3.186324
166.201773	2952.040890	1.341266	-0.088619	3.191404
166.427453	2963.057782	1.346271	-0.088664	3.196438
166.792042	2974.090718	1.351276	-0.088735	3.201490
167.317211	2985.067509	1.356280	-0.088836	3.206530
167.555263	2996.126251	1.361285	-0.088884	3.211561
167.774510	3007.132557	1.366290	-0.088928	3.216558
168.192197	3018.116424	1.371295	-0.089009	3.221563
168.531707	3029.162496	1.376299	-0.089075	3.226578
168.940513	3040.179079	1.381304	-0.089155	3.231581
169.286579	3051.181708	1.386309	-0.089222	3.236561
169.685902	3062.212878	1.391314	-0.089300	3.241554
170.037147	3073.231219	1.396318	-0.089369	3.246526
170.501905	3084.243433	1.401323	-0.089458	3.251503
170.701404	3095.241589	1.406328	-0.089499	3.256432
171.153274	3106.287723	1.411332	-0.089586	3.261407
171.312004	3117.290703	1.416337	-0.089619	3.266318
171.802636	3128.316492	1.421342	-0.089713	3.271273
172.173249	3139.315404	1.426347	-0.089786	3.276194
172.830688	3150.335096	1.431351	-0.089912	3.281153
173.311287	3161.360131	1.436356	-0.090005	3.286084
173.524406	3172.400217	1.441361	-0.090047	3.290981
173.897785	3183.390954	1.446366	-0.090120	3.295869
174.224180	3194.406715	1.451370	-0.090184	3.300754
174.679844	3205.414640	1.456375	-0.090272	3.305645
175.182939	3216.452991	1.461380	-0.090370	3.310548
175.471138	3227.454011	1.466384	-0.090426	3.315401
175.767974	3238.489007	1.471389	-0.090485	3.320262
176.172161	3249.498767	1.476394	-0.090563	3.325118
176.426576	3260.529922	1.481399	-0.090614	3.329958
176.597274	3271.525563	1.486403	-0.090649	3.334766
176.905340	3282.561895	1.491408	-0.090709	3.339600
177.263446	3293.542174	1.496413	-0.090779	3.344410
177.760406	3304.580414	1.501417	-0.090875	3.349254
178.009754	3315.588977	1.506422	-0.090924	3.354049
178.778954	3326.590249	1.511427	-0.091072	3.358896
179.186745	3337.627384	1.516432	-0.091151	3.363708
179.670766	3348.659436	1.521436	-0.091244	3.368520
179.868189	3359.654814	1.526441	-0.091284	3.373275
180.251145	3370.677452	1.531446	-0.091359	3.378057
180.525039	3381.683097	1.536451	-0.091413	3.382811
180.819748	3392.715475	1.541455	-0.091471	3.387573
181.114180	3403.720657	1.546460	-0.091529	3.392317
181.560403	3414.751318	1.551465	-0.091615	3.397083
181.645128	3425.767056	1.556469	-0.091634	3.401792
182.088115	3436.767107	1.561474	-0.091720	3.406531
182.482859	3447.761739	1.566479	-0.091797	3.411256
182.986571	3458.805112	1.571484	-0.091894	3.416007
183.400982	3469.829357	1.576488	-0.091974	3.420732
183.780420	3480.839073	1.581493	-0.092048	3.425441
183.995337	3491.855733	1.586498	-0.092091	3.430127
184.445054	3502.878489	1.591503	-0.092178	3.434837
184.883183	3513.896296	1.596507	-0.092263	3.439537
185.199692	3524.917769	1.601512	-0.092325	3.444217
185.519498	3535.922447	1.606517	-0.092388	3.448884
185.956268	3546.945218	1.611521	-0.092473	3.453567
186.220925	3557.937432	1.616526	-0.092525	3.458210
186.629184	3568.973972	1.621531	-0.092605	3.462881
186.739716	3579.975778	1.626536	-0.092628	3.467498
187.154228	3591.002061	1.631540	-0.092709	3.472154
187.525859	3602.017802	1.636545	-0.092781	3.476794
187.814863	3613.038889	1.641550	-0.092838	3.481420
188.074951	3624.064764	1.646555	-0.092889	3.486039
188.342507	3635.066654	1.651559	-0.092942	3.490643
188.872444	3646.055711	1.656564	-0.093045	3.495265
189.270049	3657.088928	1.661569	-0.093122	3.499884
189.576504	3668.124067	1.666573	-0.093182	3.504487
189.997616	3679.152787	1.671578	-0.093264	3.509094
190.286812	3690.146581	1.676583	-0.093321	3.513667
190.421680	3701.186049	1.681588	-0.093349	3.518234
190.762301	3712.178400	1.686592	-0.093416	3.522800
191.328911	3723.194278	1.691597	-0.093525	3.527394
191.393438	3734.227163	1.696602	-0.093539	3.531933
191.687198	3745.230154	1.701606	-0.093597	3.536480
191.848369	3756.234408	1.706611	-0.093630	3.541006
192.241358	3767.258609	1.711616	-0.093707	3.545561
192.590534	3778.269347	1.716621	-0.093775	3.550099
192.988684	3789.282908	1.721625	-0.093852	3.554638
193.194793	3800.316317	1.726630	-0.093894	3.559158
193.580886	3811.325807	1.731635	-0.093969	3.563682
194.009777	3822.330531	1.736640	-0.094052	3.568203
194.345631	3833.349033	1.741644	-0.094118	3.572713
194.713183	3844.343280	1.746649	-0.094190	3.577212
195.174978	3855.393720	1.751654	-0.094279	3.581738
195.360161	3866.405452	1.756658	-0.094316	3.586212
195.555950	3877.418238	1.761663	-0.094356	3.590682
195.794474	3888.434363	1.766668	-0.094403	3.595153
196.321131	3899.426039	1.771673	-0.094505	3.599639
196.525585	3910.492367	1.776677	-0.094546	3.604115
196.903110	3921.493455	1.781682	-0.094620	3.608578
197.234682	3932.486406	1.786687	-0.094685	3.613027
197.560547	3943.510293	1.791692	-0.094748	3.617482
198.015078	3954.509469	1.796696	-0.094836	3.621935
198.406609	3965.535275	1.801701	-0.094913	3.626387
198.722922	3976.547851	1.806706	-0.094975	3.630820
199.095051	3987.579860	1.811710	-0.095047	3.635261
199.521308	3998.570728	1.816715	-0.095130	3.639685
199.913846	4009.621865	1.821720	-0.095206	3.644125
200.242356	4020.610878	1.826725	-0.095271	3.648528
200.459449	4031.633951	1.831729	-0.095314	3.652928
200.850914	4042.670628	1.836734	-0.095390	3.657345
200.989640	4053.662366	1.841739	-0.095419	3.661714
201.164231	4064.702220	1.846744	-0.095455	3.666099
201.542839	4075.670689	1.851748	-0.095528	3.670473
202.006422	4086.706449	1.856753	-0.095618	3.674876
202.233191	4097.765104	1.861758	-0.095663	3.679259
202.491887	4108.782049	1.866762	-0.095715	3.683623
202.859374	4119.825382	1.871767	-0.095786	3.688003
203.198943	4130.826575	1.876772	-0.095853	3.692359
203.581028	4141.839612	1.881777	-0.095927	3.696719
203.861111	4152.843724	1.886781	-0.095983	3.701059
204.205792	4163.871458	1.891786	-0.096050	3.705410
204.358387	4174.874102	1.896791	-0.096081	3.709727
204.839506	4185.898662	1.901795	-0.096174	3.714081
205.264488	4196.910979	1.906800	-0.096257	3.718418
205.715323	4207.953137	1.911805	-0.096344	3.722765
205.717884	4218.977583	1.916810	-0.096347	3.727055
206.095770	4229.941781	1.921814	-0.096421	3.731354
206.200949	4240.981577	1.926819	-0.096443	3.735650
206.666609	4251.978981	1.931824	-0.096533	3.739961
207.063804	4263.007788	1.936829	-0.096611	3.744272
207.267169	4274.032123	1.941833	-0.096652	3.748556
207.449437	4285.046336	1.946838	-0.096689	3.752831
207.651057	4296.092615	1.951843	-0.096729	3.757114
207.997800	4307.054783	1.956847	-0.096797	3.761374
208.560930	4318.107709	1.961852	-0.096905	3.765686
208.793596	4329.070914	1.966857	-0.096952	3.769925
