Wed Nov 23 18:28:15 2022

Number of Points = 2200
Depth (nm)	Load (µN)	Time (s)	Depth (V)	Load (V)
-0.790327	1.456579	0.000000	-0.026542	1.128138
0.000000	8.306529	0.005005	-0.026692	1.137363
1.213834	17.689944	0.010009	-0.026922	1.149940
2.123890	28.502094	0.015014	-0.027095	1.164038
2.987052	39.566275	0.020019	-0.027260	1.178258
3.685468	50.670804	0.025024	-0.027394	1.192283
5.114578	61.656188	0.030028	-0.027665	1.206324
5.881595	72.882971	0.035033	-0.027811	1.220202
7.370270	83.825295	0.040038	-0.028093	1.233899
8.428549	95.011565	0.045043	-0.028295	1.247546
9.751102	106.061402	0.050047	-0.028546	1.260999
11.837636	117.003805	0.055052	-0.028940	1.274505
12.604106	128.349769	0.060057	-0.029086	1.287780
13.091646	139.552017	0.065061	-0.029181	1.300643
16.500963	149.783011	0.070066	-0.029823	1.313482
21.517903	160.957822	0.075071	-0.030767	1.327880
22.624168	172.552018	0.080076	-0.030978	1.341027
23.584895	183.736366	0.085080	-0.031161	1.353547
25.133049	194.719922	0.090085	-0.031454	1.365964
26.931664	205.740529	0.095090	-0.031794	1.378404
27.976227	216.958098	0.100094	-0.031993	1.390652
28.933617	228.041626	0.105099	-0.032175	1.402619
30.321543	239.069491	0.110104	-0.032438	1.414588
31.489965	250.123783	0.115109	-0.032660	1.426402
32.511944	261.277183	0.120113	-0.032855	1.438164
33.594162	272.279648	0.125118	-0.033061	1.449701
34.727789	283.392069	0.130123	-0.033276	1.461274
35.713180	294.433792	0.135128	-0.033464	1.472633
37.149734	305.452379	0.140132	-0.033736	1.484041
37.961466	316.591024	0.145137	-0.033891	1.495259
38.902745	327.668350	0.150142	-0.034070	1.506378
39.698080	338.723439	0.155146	-0.034222	1.517344
40.828428	349.749084	0.160151	-0.034437	1.528317
41.812849	360.817036	0.165156	-0.034625	1.539202
42.580117	371.913126	0.170161	-0.034771	1.549964
43.210169	382.981159	0.175165	-0.034892	1.560578
44.367939	393.961959	0.180170	-0.035112	1.571215
45.124795	405.077743	0.185175	-0.035257	1.581772
46.078007	416.096229	0.190180	-0.035439	1.592233
47.017475	427.147301	0.195184	-0.035618	1.602651
47.820457	438.238443	0.200189	-0.035771	1.612993
48.552713	449.280193	0.205194	-0.035911	1.623202
49.578722	460.285506	0.210198	-0.036107	1.633408
50.381588	471.365828	0.215203	-0.036260	1.643546
51.312801	482.407947	0.220208	-0.036437	1.653628
52.031714	493.474323	0.225213	-0.036575	1.663603
53.059280	504.471868	0.230217	-0.036771	1.673554
53.763707	515.581788	0.235222	-0.036905	1.683444
54.599581	526.590061	0.240227	-0.037065	1.693229
55.345820	537.663845	0.245232	-0.037208	1.702985
56.179169	548.694660	0.250236	-0.037367	1.712675
56.932512	559.724463	0.255241	-0.037511	1.722286
57.769816	570.791432	0.260246	-0.037671	1.731899
58.712977	581.762393	0.265250	-0.037851	1.741409
59.760195	592.840335	0.270255	-0.038050	1.750987
60.294223	603.950560	0.275260	-0.038153	1.760390
61.062544	614.948056	0.280265	-0.038300	1.769717
61.782966	625.993869	0.285269	-0.038438	1.779021
62.632630	637.022630	0.290274	-0.038600	1.788299
63.209382	648.085766	0.295279	-0.038711	1.797479
64.147948	659.091269	0.300283	-0.038890	1.806668
64.723059	670.176311	0.305288	-0.039000	1.815771
65.672591	681.156362	0.310293	-0.039181	1.824850
66.326857	692.236103	0.315298	-0.039307	1.833881
67.206246	703.257348	0.320302	-0.039474	1.842883
67.828200	714.325920	0.325307	-0.039594	1.851807
68.560714	725.349763	0.330312	-0.039734	1.860683
69.373713	736.365354	0.335317	-0.039889	1.869533
69.994224	747.443864	0.340321	-0.040008	1.878337
70.778142	758.432216	0.345326	-0.040158	1.887074
71.428125	769.517227	0.350331	-0.040283	1.895808
72.361941	780.468110	0.355335	-0.040461	1.904476
73.344118	791.523296	0.360340	-0.040648	1.913196
74.084153	802.599671	0.365345	-0.040789	1.921828
75.113113	813.595186	0.370350	-0.040985	1.930436
75.605074	824.697631	0.375354	-0.041080	1.938946
76.166774	835.710509	0.380359	-0.041188	1.947369
76.941157	846.734102	0.385364	-0.041336	1.955819
77.611612	857.770292	0.390369	-0.041465	1.964215
78.312098	868.794173	0.395373	-0.041599	1.972573
78.896896	879.857071	0.400378	-0.041712	1.980895
79.533562	890.847803	0.405383	-0.041834	1.989142
80.351540	901.893097	0.410387	-0.041990	1.997440
80.918866	912.957325	0.415392	-0.042099	2.005655
81.782478	923.926439	0.420397	-0.042264	2.013841
82.430743	935.003792	0.425402	-0.042388	2.022018
83.257908	946.011675	0.430406	-0.042546	2.030156
84.029554	957.050003	0.435411	-0.042694	2.038269
84.841141	968.082117	0.440416	-0.042849	2.046355
85.422650	979.135224	0.445421	-0.042961	2.054368
86.154981	990.140059	0.450425	-0.043101	2.062352
86.637084	1001.187712	0.455430	-0.043194	2.070275
87.460377	1012.214153	0.460435	-0.043351	2.078234
88.044825	1023.246831	0.465439	-0.043464	2.086110
88.845526	1034.273263	0.470444	-0.043617	2.094003
89.624596	1045.301436	0.475449	-0.043766	2.101862
90.296115	1056.329112	0.480454	-0.043894	2.109666
90.712081	1067.416040	0.485458	-0.043975	2.117422
91.118658	1078.427174	0.490463	-0.044054	2.125095
92.165854	1089.383472	0.495468	-0.044253	2.132851
92.598264	1100.499425	0.500472	-0.044337	2.140546
93.235554	1111.460897	0.505477	-0.044460	2.148155
93.921864	1122.529030	0.510482	-0.044591	2.155821
94.377992	1133.559980	0.515487	-0.044679	2.163382
95.270477	1144.536750	0.520491	-0.044850	2.170978
95.835729	1155.636348	0.525496	-0.044958	2.178556
96.294769	1166.646639	0.530501	-0.045047	2.186025
97.131219	1177.612524	0.535506	-0.045207	2.193522
97.747069	1188.705832	0.540510	-0.045325	2.201029
98.244289	1199.724273	0.545515	-0.045421	2.208435
98.853328	1210.758148	0.550520	-0.045538	2.215850
99.319078	1221.767389	0.555524	-0.045628	2.223193
99.940173	1232.786508	0.560529	-0.045748	2.230552
100.475497	1243.830932	0.565534	-0.045851	2.237884
101.117675	1254.850764	0.570539	-0.045974	2.245199
101.859559	1265.847035	0.575543	-0.046116	2.252497
102.561580	1276.908792	0.580548	-0.046250	2.259804
103.082665	1287.927381	0.585553	-0.046351	2.267021
103.899495	1298.926019	0.590558	-0.046507	2.274266
104.480519	1309.972418	0.595562	-0.046619	2.281467
105.078369	1320.994984	0.600567	-0.046734	2.288634
105.579276	1332.056408	0.605572	-0.046830	2.295782
106.159730	1343.042423	0.610576	-0.046942	2.302877
106.422837	1354.125305	0.615581	-0.046994	2.309945
107.163822	1365.073402	0.620586	-0.047136	2.317006
107.685814	1376.152906	0.625591	-0.047236	2.324082
108.157935	1387.160631	0.630595	-0.047328	2.331081
108.915203	1398.160744	0.635600	-0.047473	2.338114
109.533108	1409.194417	0.640605	-0.047591	2.345117
109.916122	1420.252196	0.645610	-0.047666	2.352066
110.351973	1431.281918	0.650614	-0.047750	2.358987
110.835925	1442.268100	0.655619	-0.047844	2.365872
111.593702	1453.296466	0.660624	-0.047989	2.372817
112.284734	1464.313126	0.665628	-0.048121	2.379721
112.926143	1475.344990	0.670633	-0.048244	2.386605
113.484589	1486.400899	0.675638	-0.048352	2.393466
113.819242	1497.403761	0.680643	-0.048417	2.400231
114.502094	1508.393593	0.685647	-0.048548	2.407038
115.047137	1519.479925	0.690652	-0.048653	2.413856
115.498891	1530.456545	0.695657	-0.048741	2.420571
116.003545	1541.495046	0.700661	-0.048838	2.427314
116.413247	1552.541404	0.705666	-0.048918	2.434025
116.980646	1563.530731	0.710671	-0.049027	2.440713
117.636159	1574.552378	0.715676	-0.049153	2.447420
118.283464	1585.588227	0.720680	-0.049277	2.454115
118.881108	1596.589226	0.725685	-0.049392	2.460761
119.323838	1607.646527	0.730690	-0.049478	2.467393
119.766405	1618.670488	0.735695	-0.049563	2.473987
120.484952	1629.659144	0.740699	-0.049701	2.480595
120.922055	1640.706035	0.745704	-0.049786	2.487166
121.491083	1651.741538	0.750709	-0.049895	2.493738
121.704093	1662.784716	0.755713	-0.049938	2.500230
122.224629	1673.747013	0.760718	-0.050038	2.506715
122.900846	1684.800177	0.765723	-0.050168	2.513266
123.468467	1695.778348	0.770728	-0.050277	2.519736
124.231902	1706.833889	0.775732	-0.050423	2.526270
124.674352	1717.867261	0.780737	-0.050509	2.532715
125.142174	1728.881503	0.785742	-0.050599	2.539136
125.652308	1739.904655	0.790747	-0.050698	2.545555
126.249133	1750.915854	0.795751	-0.050812	2.551966
126.951836	1761.933548	0.800756	-0.050947	2.558384
127.399158	1772.958821	0.805761	-0.051034	2.564743
127.831893	1784.025581	0.810765	-0.051118	2.571108
128.502740	1795.050815	0.815770	-0.051246	2.577476
128.858845	1806.050342	0.820775	-0.051316	2.583757
129.555922	1817.017193	0.825780	-0.051449	2.590066
130.223090	1828.071899	0.830784	-0.051577	2.596403
130.633569	1839.120481	0.835789	-0.051657	2.602674
131.005438	1850.112834	0.840794	-0.051730	2.608893
131.441848	1861.153020	0.845799	-0.051814	2.615135
132.009833	1872.150978	0.850803	-0.051923	2.621361
132.431731	1883.194860	0.855808	-0.052005	2.627572
133.071161	1894.189960	0.860813	-0.052128	2.633780
133.513895	1905.224431	0.865817	-0.052214	2.639960
133.992242	1916.241457	0.870822	-0.052306	2.646122
134.566425	1927.271684	0.875827	-0.052417	2.652294
135.100583	1938.292405	0.880832	-0.052520	2.658439
135.666462	1949.271658	0.885836	-0.052629	2.664553
136.428501	1960.321093	0.890841	-0.052774	2.670724
136.702970	1971.363417	0.895846	-0.052829	2.676793
137.515484	1982.343178	0.900850	-0.052984	2.682907
137.909392	1993.400113	0.905855	-0.053060	2.688977
138.481343	2004.387110	0.910860	-0.053170	2.695026
138.916630	2015.450730	0.915865	-0.053255	2.701079
139.326398	2026.446912	0.920869	-0.053335	2.707077
139.886497	2037.471237	0.925874	-0.053442	2.713103
140.275721	2048.472641	0.930879	-0.053518	2.719074
140.679202	2059.504752	0.935884	-0.053597	2.725051
141.454660	2070.492200	0.940888	-0.053745	2.731053
141.915027	2081.521579	0.945893	-0.053834	2.737011
142.472118	2092.539985	0.950898	-0.053941	2.742967
142.893587	2103.574291	0.955902	-0.054023	2.748895
143.419390	2114.583210	0.960907	-0.054124	2.754815
143.907101	2125.597040	0.965912	-0.054219	2.760717
144.422463	2136.638275	0.970917	-0.054318	2.766626
144.782199	2147.663837	0.975921	-0.054388	2.772489
145.411834	2158.635026	0.980926	-0.054509	2.778354
145.715535	2169.708411	0.985931	-0.054569	2.784208
146.382432	2180.693098	0.990936	-0.054697	2.790062
146.972860	2191.724849	0.995940	-0.054810	2.795915
147.354768	2202.753386	1.000945	-0.054885	2.801721
147.960316	2213.754536	1.005950	-0.055001	2.807536
148.289008	2224.802379	1.010954	-0.055065	2.813319
148.645896	2235.819948	1.015959	-0.055135	2.819079
149.217841	2246.792142	1.020964	-0.055245	2.824838
149.806757	2257.847051	1.025969	-0.055358	2.830630
150.549216	2268.840243	1.030973	-0.055500	2.836403
150.790654	2279.913287	1.035978	-0.055548	2.842125
151.334924	2290.876565	1.040983	-0.055653	2.847828
151.994996	2301.910554	1.045988	-0.055780	2.853573
152.316314	2312.951749	1.050992	-0.055843	2.859258
152.855885	2323.949449	1.055997	-0.055947	2.864943
153.461794	2334.971405	1.061002	-0.056063	2.870639
153.936197	2346.003334	1.066006	-0.056155	2.876308
154.366933	2357.008625	1.071011	-0.056239	2.881946
155.019855	2368.023612	1.076016	-0.056364	2.887611
155.511547	2379.053932	1.081021	-0.056459	2.893249
155.803645	2390.094694	1.086025	-0.056516	2.898850
156.176934	2401.095031	1.091030	-0.056589	2.904432
156.582024	2412.129710	1.096035	-0.056668	2.910025
156.799068	2423.130357	1.101039	-0.056711	2.915562
157.285987	2434.153223	1.106044	-0.056805	2.921140
157.824266	2445.164548	1.111049	-0.056909	2.926710
158.438493	2456.168110	1.116054	-0.057027	2.932277
158.744873	2467.201174	1.121058	-0.057087	2.937801
159.293166	2478.208457	1.126063	-0.057193	2.943338
159.772068	2489.239179	1.131068	-0.057285	2.948866
160.394366	2500.253430	1.136073	-0.057405	2.954396
160.946520	2511.270302	1.141077	-0.057511	2.959907
161.499467	2522.296665	1.146082	-0.057618	2.965413
161.838676	2533.334849	1.151087	-0.057684	2.970882
162.314185	2544.335428	1.156091	-0.057776	2.976342
162.565220	2555.366262	1.161096	-0.057826	2.981775
162.942932	2566.363996	1.166101	-0.057900	2.987200
163.458378	2577.380475	1.171106	-0.057999	2.992644
163.811134	2588.416383	1.176110	-0.058068	2.998064
164.224169	2599.419165	1.181115	-0.058148	3.003466
164.795582	2610.439850	1.186120	-0.058258	3.008891
165.275207	2621.454315	1.191125	-0.058351	3.014289
165.977814	2632.465661	1.196129	-0.058485	3.019708
166.619476	2643.463945	1.201134	-0.058609	3.025102
167.269060	2654.525667	1.206139	-0.058733	3.030518
167.595304	2665.537879	1.211143	-0.058797	3.035854
168.093675	2676.550430	1.216148	-0.058893	3.041206
168.613108	2687.560333	1.221153	-0.058994	3.046549
168.922547	2698.600326	1.226158	-0.059054	3.051868
169.266213	2709.590122	1.231162	-0.059122	3.057158
169.490119	2720.650662	1.236167	-0.059166	3.062456
169.934911	2731.623624	1.241172	-0.059252	3.067734
170.399516	2742.672001	1.246177	-0.059342	3.073042
170.727207	2753.671034	1.251181	-0.059407	3.078297
171.299583	2764.690821	1.256186	-0.059517	3.083588
171.887590	2775.705676	1.261191	-0.059630	3.088869
172.172661	2786.752580	1.266195	-0.059686	3.094114
172.585649	2797.731635	1.271200	-0.059766	3.099336
173.008126	2808.790067	1.276205	-0.059848	3.104587
173.493101	2819.769291	1.281210	-0.059942	3.109801
173.929197	2830.809886	1.286214	-0.060026	3.115028
174.159552	2841.830328	1.291219	-0.060072	3.120209
174.580841	2852.843407	1.296224	-0.060154	3.125404
175.061557	2863.858496	1.301228	-0.060247	3.130599
175.617589	2874.871664	1.306233	-0.060354	3.135794
175.768822	2885.901713	1.311238	-0.060385	3.140934
176.158718	2896.905800	1.316243	-0.060461	3.146086
176.447422	2907.937647	1.321247	-0.060518	3.151228
177.113801	2918.920176	1.326252	-0.060646	3.156390
177.655944	2929.938650	1.331257	-0.060750	3.161543
178.315267	2940.969361	1.336262	-0.060877	3.166709
178.828670	2951.997347	1.341266	-0.060976	3.171846
179.185332	2963.008293	1.346271	-0.061045	3.176945
179.738623	2974.010873	1.351276	-0.061152	3.182059
180.310638	2985.048159	1.356280	-0.061262	3.187182
180.991122	2996.040191	1.361285	-0.061392	3.192291
181.216068	3007.100932	1.366290	-0.061437	3.197363
181.418530	3018.119386	1.371295	-0.061478	3.202404
181.768878	3029.128475	1.376299	-0.061547	3.207453
181.849852	3040.129772	1.381304	-0.061565	3.212455
182.328588	3051.148029	1.386309	-0.061657	3.217508
182.675612	3062.173020	1.391314	-0.061725	3.222540
182.969091	3073.191580	1.396318	-0.061783	3.227553
183.321921	3084.211193	1.401323	-0.061852	3.232567
183.694896	3095.212642	1.406328	-0.061924	3.237568
184.201524	3106.213268	1.411332	-0.062022	3.242577
184.600431	3117.264411	1.416337	-0.062100	3.247588
185.095624	3128.242678	1.421342	-0.062195	3.252570
185.529084	3139.291574	1.426347	-0.062279	3.257568
186.054017	3150.289754	1.431351	-0.062381	3.262548
186.603560	3161.315753	1.436356	-0.062487	3.267535
186.845120	3172.336198	1.441361	-0.062535	3.272474
187.315981	3183.352425	1.446366	-0.062626	3.277431
187.743274	3194.366549	1.451370	-0.062709	3.282375
188.091281	3205.395600	1.456375	-0.062777	3.287308
188.474646	3216.423752	1.461380	-0.062851	3.292237
188.738524	3227.415087	1.466384	-0.062903	3.297128
189.186231	3238.423955	1.471389	-0.062990	3.302042
189.574618	3249.468610	1.476394	-0.063066	3.306957
189.989025	3260.455966	1.481399	-0.063146	3.311842
190.385646	3271.485614	1.486403	-0.063223	3.316737
190.989597	3282.475505	1.491408	-0.063340	3.321633
191.455387	3293.551882	1.496413	-0.063430	3.326542
191.817314	3304.513640	1.501417	-0.063500	3.331380
192.063262	3315.577305	1.506422	-0.063549	3.336242
192.534479	3326.540941	1.511427	-0.063640	3.341081
192.960699	3337.599596	1.516432	-0.063723	3.345949
193.323797	3348.599810	1.521436	-0.063794	3.350776
193.707940	3359.629049	1.526441	-0.063869	3.355611
194.156771	3370.634105	1.531446	-0.063956	3.360437
194.631295	3381.652556	1.536451	-0.064047	3.365264
194.936328	3392.701457	1.541455	-0.064107	3.370078
195.281672	3403.680642	1.546460	-0.064175	3.374859
195.743444	3414.689619	1.551465	-0.064264	3.379660
196.077755	3425.735001	1.556469	-0.064330	3.384454
196.480765	3436.729989	1.561474	-0.064408	3.389228
196.804166	3447.768848	1.566479	-0.064471	3.394005
197.200087	3458.758219	1.571484	-0.064548	3.398762
197.630385	3469.780101	1.576488	-0.064632	3.403531
198.101573	3480.785315	1.581493	-0.064723	3.408290
198.568527	3491.827304	1.586498	-0.064813	3.413058
198.843574	3502.845222	1.591503	-0.064868	3.417787
199.163183	3513.842113	1.596507	-0.064930	3.422504
199.839698	3524.847024	1.601512	-0.065060	3.427261
200.090668	3535.887425	1.606517	-0.065110	3.431976
200.261116	3546.915330	1.611521	-0.065145	3.436670
200.720176	3557.930649	1.616526	-0.065234	3.441386
200.952811	3568.937338	1.621531	-0.065280	3.446065
201.497164	3579.935699	1.626536	-0.065385	3.450771
201.912987	3590.953755	1.631540	-0.065466	3.455463
202.229970	3601.989802	1.636545	-0.065528	3.460145
202.546455	3613.009278	1.641550	-0.065590	3.464814
202.921951	3624.031485	1.646555	-0.065663	3.469484
203.271520	3635.019352	1.651559	-0.065731	3.474131
203.980054	3646.031659	1.656564	-0.065867	3.478822
204.384236	3657.064840	1.661569	-0.065946	3.483481
204.945969	3668.091925	1.666573	-0.066054	3.488149
205.051313	3679.085513	1.671578	-0.066076	3.492745
205.679641	3690.100714	1.676583	-0.066197	3.497403
205.965411	3701.129619	1.681588	-0.066253	3.502022
206.328412	3712.144113	1.686592	-0.066324	3.506637
206.561393	3723.164274	1.691597	-0.066371	3.511234
206.884049	3734.177066	1.696602	-0.066434	3.515831
207.021616	3745.180649	1.701606	-0.066462	3.520399
207.649816	3756.214239	1.706611	-0.066583	3.525027
208.030938	3767.227413	1.711616	-0.066657	3.529613
208.482882	3778.237677	1.716621	-0.066745	3.534200
208.722244	3789.268321	1.721625	-0.066792	3.538766
209.105807	3800.284500	1.726630	-0.066867	3.543335
209.307240	3811.275173	1.731635	-0.066908	3.547869
209.979675	3822.278563	1.736640	-0.067036	3.552453
210.434496	3833.314733	1.741644	-0.067125	3.557021
210.774420	3844.342053	1.746649	-0.067191	3.561566
211.000031	3855.352409	1.751654	-0.067236	3.566087
211.403656	3866.354609	1.756658	-0.067315	3.570617
211.680216	3877.369052	1.761663	-0.067369	3.575133
212.181756	3888.403679	1.766668	-0.067466	3.579676
212.375346	3899.408000	1.771673	-0.067505	3.584167
212.900945	3910.453373	1.776677	-0.067606	3.588706
212.891444	3921.458206	1.781682	-0.067607	3.593164
213.295393	3932.471027	1.786687	-0.067686	3.597664
213.807586	3943.431397	1.791692	-0.067785	3.602149
214.246371	3954.503519	1.796696	-0.067870	3.606666
214.380879	3965.520207	1.801701	-0.067898	3.611122
214.914824	3976.525607	1.806706	-0.068001	3.615610
215.105824	3987.541832	1.811710	-0.068039	3.620061
215.553412	3998.542919	1.816715	-0.068126	3.624527
216.117752	4009.565340	1.821720	-0.068235	3.629009
216.452901	4020.606148	1.826725	-0.068300	3.633468
216.687605	4031.620906	1.831729	-0.068347	3.637901
217.126434	4042.600331	1.836734	-0.068432	3.642335
217.364656	4053.648563	1.841739	-0.068479	3.646771
217.709786	4064.631485	1.846744	-0.068547	3.651186
218.159359	4075.664964	1.851748	-0.068634	3.655627
218.443755	4086.691098	1.856753	-0.068690	3.660042
218.799688	4097.722316	1.861758	-0.068760	3.664461
219.101144	4108.764078	1.866762	-0.068819	3.668873
219.548858	4119.767838	1.871767	-0.068906	3.673280
219.973347	4130.818098	1.876772	-0.068988	3.677698
220.423320	4141.785308	1.881777	-0.069075	3.682080
220.778168	4152.831067	1.886781	-0.069145	3.686478
220.978075	4163.836326	1.891786	-0.069185	3.690839
221.409356	4174.842317	1.896791	-0.069268	3.695218
221.867989	4185.845922	1.901795	-0.069357	3.699594
222.162508	4196.903865	1.906800	-0.069415	3.703970
222.285339	4207.904153	1.911805	-0.069441	3.708300
222.502520	4218.939244	1.916810	-0.069484	3.712648
222.785112	4229.933088	1.921814	-0.069540	3.716982
223.244375	4240.932802	1.926819	-0.069629	3.721331
223.503017	4251.971061	1.931824	-0.069680	3.725669
223.876480	4262.976868	1.936829	-0.069753	3.730001
224.050137	4273.995840	1.941833	-0.069788	3.734313
224.422668	4284.999126	1.946838	-0.069861	3.738634
224.761055	4296.009759	1.951843	-0.069927	3.742949
225.623919	4307.033397	1.956847	-0.070092	3.747317
226.073526	4318.041084	1.961852	-0.070179	3.751632
226.495273	4329.081046	1.966857	-0.070261	3.755951
