Wed Nov 23 17:12:02 2022

Number of Points = 2200
Depth (nm)	Load (µN)	Time (s)	Depth (V)	Load (V)
-1.683639	1.772577	0.000000	0.075715	0.823657
0.000000	6.834425	0.005005	0.075398	0.833844
2.144521	15.165544	0.010009	0.074994	0.849935
3.875596	25.534679	0.015014	0.074666	0.868948
5.415418	36.567503	0.020019	0.074375	0.888542
6.792730	47.798230	0.025024	0.074113	0.907935
7.607674	59.161885	0.030028	0.073958	0.926801
8.414977	70.406507	0.035033	0.073803	0.945097
8.904138	81.740176	0.040038	0.073709	0.963001
9.495249	92.924403	0.045043	0.073595	0.980408
10.014969	104.130103	0.050047	0.073495	0.997504
10.221142	115.370662	0.055052	0.073453	1.014193
10.679607	126.522233	0.060057	0.073364	1.030617
10.832328	137.724658	0.065061	0.073333	1.046695
11.255544	148.852971	0.070066	0.073251	1.062566
11.473892	160.008290	0.075071	0.073207	1.078136
11.955247	171.110889	0.080076	0.073114	1.093545
12.272580	182.275513	0.085080	0.073052	1.108740
12.571951	193.419595	0.090085	0.072993	1.123695
12.876756	204.523428	0.095090	0.072933	1.138403
13.310206	215.639404	0.100094	0.072849	1.152999
13.667431	226.736097	0.105099	0.072779	1.167353
14.093408	237.880011	0.110104	0.072696	1.181622
14.476703	248.961352	0.115109	0.072622	1.195625
14.925364	260.075216	0.120113	0.072535	1.209534
14.970717	271.237997	0.125118	0.072523	1.223165
15.443364	282.260368	0.130123	0.072432	1.236665
28.680091	290.710266	0.135128	0.069946	1.252501
31.033913	303.694456	0.140132	0.069501	1.268782
32.505978	315.245098	0.145137	0.069222	1.282828
34.008195	326.425845	0.150142	0.068938	1.296310
35.228647	337.610952	0.155146	0.068706	1.309542
36.428148	348.695062	0.160151	0.068478	1.322518
37.652733	359.742947	0.165156	0.068246	1.335338
38.734841	370.878832	0.170161	0.068040	1.348075
40.194797	381.853420	0.175165	0.067763	1.360665
41.362632	393.018416	0.180170	0.067541	1.373231
42.324501	404.115465	0.185175	0.067358	1.385529
43.442023	415.187911	0.190180	0.067145	1.397752
44.487130	426.249338	0.195184	0.066947	1.409829
45.553652	437.356223	0.200189	0.066744	1.421858
46.417162	448.422420	0.205194	0.066579	1.433668
47.461704	459.479179	0.210198	0.066380	1.445438
48.238730	470.578465	0.215203	0.066232	1.457058
49.376131	481.578251	0.220208	0.066016	1.468616
50.708709	492.625974	0.225213	0.065763	1.480201
51.583252	503.763395	0.230217	0.065596	1.491621
52.396167	514.832751	0.235222	0.065441	1.502865
53.152801	525.900307	0.240227	0.065296	1.514003
54.153974	536.902020	0.245232	0.065105	1.525081
55.102678	548.007597	0.250236	0.064925	1.536160
55.688924	559.115461	0.255241	0.064812	1.547038
56.699897	570.058435	0.260246	0.064619	1.557826
57.857745	581.127651	0.265250	0.064399	1.568709
58.603815	592.261365	0.270255	0.064257	1.579439
59.356625	603.270765	0.275260	0.064113	1.589982
60.110059	614.379875	0.280265	0.063969	1.600548
60.680824	625.418793	0.285269	0.063859	1.610920
61.414601	636.490132	0.290274	0.063718	1.621308
62.479288	647.410578	0.295279	0.063516	1.631599
63.530419	658.518195	0.300283	0.063316	1.641990
64.396907	669.593136	0.305288	0.063151	1.652227
65.014886	680.668934	0.310293	0.063032	1.662322
65.718720	691.676952	0.315298	0.062897	1.672323
66.711814	702.733062	0.320302	0.062708	1.682397
67.447271	713.772505	0.325307	0.062567	1.692316
68.139894	724.883575	0.330312	0.062435	1.702226
68.889972	735.856419	0.335317	0.062291	1.711976
69.772259	746.917354	0.340321	0.062123	1.721787
70.445193	757.976524	0.345326	0.061994	1.731476
71.416291	768.994556	0.350331	0.061809	1.741167
72.162592	780.031680	0.355335	0.061666	1.750752
72.834206	791.125697	0.360340	0.061537	1.760310
73.547876	802.146464	0.365345	0.061401	1.769767
74.471820	813.181038	0.370350	0.061225	1.779247
75.127127	824.220667	0.375354	0.061099	1.788602
75.788699	835.280620	0.380359	0.060972	1.797927
76.384138	846.317164	0.385364	0.060857	1.807165
77.169406	857.356576	0.390369	0.060707	1.816412
77.807888	868.380749	0.395373	0.060585	1.825558
78.670374	879.415430	0.400378	0.060420	1.834730
79.582728	890.426410	0.405383	0.060246	1.843851
80.196897	901.532750	0.410387	0.060128	1.852919
80.877848	912.544843	0.415392	0.059998	1.861887
81.597885	923.586955	0.420397	0.059860	1.870846
81.972656	934.666208	0.425402	0.059787	1.879696
82.863690	945.619622	0.430406	0.059617	1.888547
83.625965	956.686920	0.435411	0.059471	1.897410
84.186701	967.741388	0.440416	0.059363	1.906168
85.003345	978.743452	0.445421	0.059207	1.914913
85.688860	989.803049	0.450425	0.059076	1.923627
86.417060	1000.826172	0.455430	0.058937	1.932285
87.026735	1011.890918	0.460435	0.058820	1.940905
87.785364	1022.864541	0.465439	0.058674	1.949456
88.479083	1033.972426	0.470444	0.058542	1.958054
88.745612	1045.004102	0.475449	0.058489	1.966445
89.686022	1056.011100	0.480454	0.058310	1.974957
90.260917	1067.053086	0.485458	0.058199	1.983364
90.988942	1078.089879	0.490463	0.058060	1.991770
91.294220	1089.150197	0.495468	0.058000	2.000051
91.693895	1100.210511	0.500472	0.057922	2.008321
92.409865	1111.143072	0.505477	0.057785	2.016543
93.048427	1122.224590	0.510482	0.057662	2.024821
93.852986	1133.223457	0.515487	0.057509	2.033046
94.501628	1144.290405	0.520491	0.057384	2.041248
94.746880	1155.349891	0.525496	0.057335	2.049312
95.111647	1166.405535	0.530501	0.057264	2.057371
95.753614	1177.348872	0.535506	0.057141	2.065386
96.520994	1188.389939	0.540510	0.056994	2.073470
96.938544	1199.458262	0.545515	0.056913	2.081456
97.574293	1210.484782	0.550520	0.056791	2.089435
97.965468	1221.523606	0.555524	0.056715	2.097334
98.494823	1232.540348	0.560529	0.056613	2.105220
99.197435	1243.528768	0.565534	0.056478	2.113097
100.045676	1254.562286	0.570539	0.056317	2.121012
100.246515	1265.648984	0.575543	0.056276	2.128780
100.857481	1276.660562	0.580548	0.056159	2.136565
101.550949	1287.644024	0.585553	0.056026	2.144321
101.948345	1298.736587	0.590558	0.055949	2.152055
102.425641	1309.743137	0.595562	0.055856	2.159721
103.028671	1320.759868	0.600567	0.055740	2.167395
103.501670	1331.811452	0.605572	0.055649	2.175036
103.885765	1342.838210	0.610576	0.055574	2.182612
104.316249	1353.837473	0.615581	0.055491	2.190155
104.885616	1364.891589	0.620586	0.055381	2.197739
105.501945	1375.897874	0.625591	0.055263	2.205276
106.369659	1386.891059	0.630595	0.055097	2.212835
106.502850	1398.019280	0.635600	0.055069	2.220293
107.256527	1408.943390	0.640605	0.054925	2.227730
107.826670	1420.000531	0.645610	0.054816	2.235188
108.491602	1431.055940	0.650614	0.054688	2.242641
109.081874	1442.028585	0.655619	0.054575	2.249998
109.658830	1453.123850	0.660624	0.054464	2.257409
110.060029	1464.112368	0.665628	0.054386	2.264687
110.647165	1475.137457	0.670633	0.054273	2.272006
110.901810	1486.210312	0.675638	0.054222	2.279259
111.527202	1497.185028	0.680643	0.054102	2.286507
112.188487	1508.206132	0.685647	0.053975	2.293769
112.543583	1519.261310	0.690652	0.053906	2.300964
113.174173	1530.237159	0.695657	0.053785	2.308144
113.680158	1541.331286	0.700661	0.053687	2.315351
114.107799	1552.317797	0.705666	0.053604	2.322450
114.730928	1563.333334	0.710671	0.053485	2.329588
115.449336	1574.368770	0.715676	0.053347	2.336735
115.869710	1585.405067	0.720680	0.053265	2.343799
116.224956	1596.445351	0.725685	0.053196	2.350831
116.836308	1607.420924	0.730690	0.053079	2.357854
117.484858	1618.459305	0.735695	0.052954	2.364902
117.760013	1629.513803	0.740699	0.052900	2.371863
118.409759	1640.512499	0.745704	0.052775	2.378846
119.124666	1651.541641	0.750709	0.052638	2.385840
119.796359	1662.516511	0.755713	0.052510	2.392771
120.466457	1673.596707	0.760718	0.052381	2.399746
121.045401	1684.584013	0.765723	0.052270	2.406625
121.653336	1695.666710	0.770728	0.052153	2.413549
122.051340	1706.634087	0.775732	0.052076	2.420340
122.670972	1717.698120	0.780737	0.051957	2.427216
122.973437	1728.723932	0.785742	0.051897	2.433985
123.510855	1739.757142	0.790747	0.051793	2.440786
123.977628	1750.739182	0.795751	0.051703	2.447524
124.545706	1761.785326	0.800756	0.051594	2.454301
124.946907	1772.811744	0.805761	0.051516	2.461015
125.408772	1783.828985	0.810765	0.051426	2.467717
126.019231	1794.831194	0.815770	0.051309	2.474420
126.679835	1805.856422	0.820775	0.051182	2.481129
127.239813	1816.893288	0.825780	0.051075	2.487807
127.857811	1827.916189	0.830784	0.050956	2.494469
128.525158	1838.913798	0.835789	0.050828	2.501109
129.089725	1849.980597	0.840794	0.050719	2.507751
129.549714	1860.961846	0.845799	0.050630	2.514306
129.852008	1872.037462	0.850803	0.050571	2.520868
130.246265	1883.027165	0.855808	0.050494	2.527381
131.117546	1894.055947	0.860813	0.050328	2.533990
131.386516	1905.068983	0.865817	0.050275	2.540458
132.023713	1916.101036	0.870822	0.050152	2.546991
132.338416	1927.151467	0.875827	0.050091	2.553456
132.752344	1938.128037	0.880832	0.050010	2.559882
133.346640	1949.144464	0.885836	0.049896	2.566347
134.066687	1960.198944	0.890841	0.049758	2.572841
134.443894	1971.263189	0.895846	0.049685	2.579261
134.833739	1982.266560	0.900850	0.049609	2.585632
135.094648	1993.262451	0.905855	0.049557	2.591959
135.517403	2004.247566	0.910860	0.049475	2.598295
135.889744	2015.315589	0.915865	0.049402	2.604653
136.388918	2026.311493	0.920869	0.049306	2.610977
136.696841	2037.377241	0.925874	0.049246	2.617291
137.150817	2048.324195	0.930879	0.049158	2.623549
137.607787	2059.347208	0.935884	0.049069	2.629835
138.295830	2070.382931	0.940888	0.048937	2.636155
138.478589	2081.399829	0.945893	0.048900	2.642358
139.043240	2092.442127	0.950898	0.048792	2.648629
139.402377	2103.429686	0.955902	0.048722	2.654818
139.956042	2114.463465	0.960907	0.048615	2.661053
140.288374	2125.492329	0.965912	0.048550	2.667231
140.883829	2136.477108	0.970917	0.048435	2.673416
141.096428	2147.557095	0.975921	0.048393	2.679573
141.614325	2158.548378	0.980926	0.048293	2.685720
142.113186	2169.564169	0.985931	0.048197	2.691863
142.441078	2180.588140	0.990936	0.048132	2.697966
142.704433	2191.601391	0.995940	0.048080	2.704039
143.494700	2202.595622	1.000945	0.047929	2.710178
143.966953	2213.641126	1.005950	0.047838	2.716277
144.504380	2224.686897	1.010954	0.047734	2.722373
144.769199	2235.674660	1.015959	0.047682	2.728377
145.342174	2246.732537	1.020964	0.047572	2.734458
145.637984	2257.718362	1.025969	0.047513	2.740440
146.233129	2268.741748	1.030973	0.047399	2.746480
146.814499	2279.742741	1.035978	0.047287	2.752491
147.351306	2290.805826	1.040983	0.047184	2.758516
147.552396	2301.820387	1.045988	0.047143	2.764444
148.088766	2312.819908	1.050992	0.047040	2.770408
148.569950	2323.835282	1.055997	0.046947	2.776359
149.098285	2334.875424	1.061002	0.046845	2.782317
149.406550	2345.879683	1.066006	0.046784	2.788207
149.779583	2356.915705	1.071011	0.046712	2.794112
150.077566	2367.929156	1.076016	0.046653	2.799980
150.770611	2378.937194	1.081021	0.046520	2.805898
151.237349	2389.965553	1.086025	0.046430	2.811776
151.644682	2400.994980	1.091030	0.046351	2.817634
151.953288	2411.996232	1.096035	0.046290	2.823448
152.276074	2423.047816	1.101039	0.046227	2.829278
152.472131	2434.054105	1.106044	0.046187	2.835053
152.929088	2445.067617	1.111049	0.046099	2.840861
153.339218	2456.085051	1.116054	0.046019	2.846652
153.950321	2467.111444	1.121058	0.045902	2.852468
154.480786	2478.054968	1.126063	0.045799	2.858217
154.989175	2489.159895	1.131068	0.045701	2.864033
155.408790	2500.160182	1.136073	0.045620	2.869769
156.043396	2511.185966	1.141077	0.045498	2.875541
156.375404	2522.184195	1.146082	0.045433	2.881239
156.719144	2533.235755	1.151087	0.045366	2.886955
157.118060	2544.240713	1.156091	0.045288	2.892645
157.658813	2555.267727	1.161096	0.045184	2.898357
158.006452	2566.261037	1.166101	0.045116	2.904010
158.532959	2577.288355	1.171106	0.045015	2.909697
158.917904	2588.301148	1.176110	0.044940	2.915343
159.401068	2599.351980	1.181115	0.044846	2.921013
159.917756	2610.314416	1.186120	0.044747	2.926632
160.393452	2621.370531	1.191125	0.044655	2.932282
160.832521	2632.365336	1.196129	0.044569	2.937883
161.233371	2643.421283	1.201134	0.044492	2.943499
161.479370	2654.426950	1.206139	0.044443	2.949056
161.995640	2665.449454	1.211143	0.044343	2.954651
162.727976	2676.411489	1.216148	0.044203	2.960238
163.317959	2687.485329	1.221153	0.044089	2.965849
163.696641	2698.516216	1.226158	0.044016	2.971395
164.143058	2709.517414	1.231162	0.043929	2.976927
164.421264	2720.525618	1.236167	0.043874	2.982426
164.992993	2731.543931	1.241172	0.043764	2.987964
165.356081	2742.571137	1.246177	0.043693	2.993465
165.837946	2753.601542	1.251181	0.043600	2.998975
165.990770	2764.627625	1.256186	0.043569	3.004424
166.364245	2775.644269	1.261191	0.043496	3.009891
166.621429	2786.625260	1.266195	0.043445	3.015313
167.243475	2797.672926	1.271200	0.043326	3.020812
167.828375	2808.638738	1.276205	0.043213	3.026255
168.202869	2819.730440	1.281210	0.043140	3.031719
168.283484	2830.708015	1.286214	0.043122	3.037075
168.835174	2841.741953	1.291219	0.043016	3.042516
169.045716	2852.784419	1.296224	0.042974	3.047903
169.499644	2863.768014	1.301228	0.042886	3.053287
169.915860	2874.783419	1.306233	0.042805	3.058671
170.226608	2885.816518	1.311238	0.042744	3.064039
170.613352	2896.825222	1.316243	0.042669	3.069397
170.952019	2907.840623	1.321247	0.042602	3.074741
171.384875	2918.854671	1.326252	0.042518	3.080089
172.328524	2929.849835	1.331257	0.042339	3.085492
172.574921	2940.908581	1.336262	0.042290	3.090816
172.984770	2951.922416	1.341266	0.042210	3.096132
173.059291	2962.947600	1.346271	0.042193	3.101397
173.456914	2973.947712	1.351276	0.042116	3.106687
173.925153	2984.941487	1.356280	0.042025	3.111975
174.129988	2996.013945	1.361285	0.041984	3.117254
174.484318	3006.999160	1.366290	0.041915	3.122504
174.983647	3018.035144	1.371295	0.041819	3.127789
175.297093	3029.032571	1.376299	0.041757	3.133021
176.006431	3040.046151	1.381304	0.041621	3.138306
176.351718	3051.067958	1.386309	0.041554	3.143536
176.702434	3062.093579	1.391314	0.041485	3.148760
177.249418	3073.088208	1.396318	0.041380	3.153987
177.582177	3084.147188	1.401323	0.041315	3.159207
177.866224	3095.142094	1.406328	0.041259	3.164381
178.442715	3106.156716	1.411332	0.041148	3.169595
178.896680	3117.151451	1.416337	0.041060	3.174775
179.207607	3128.246123	1.421342	0.040999	3.179974
179.535545	3139.175853	1.426347	0.040935	3.185090
180.007792	3150.245954	1.431351	0.040843	3.190281
180.369765	3161.231621	1.436356	0.040773	3.195411
180.816215	3172.287175	1.441361	0.040686	3.200576
181.193524	3183.274764	1.446366	0.040613	3.205691
181.457691	3194.303012	1.451370	0.040560	3.210802
181.906584	3205.300209	1.456375	0.040473	3.215916
182.257016	3216.343266	1.461380	0.040405	3.221029
182.445903	3227.365802	1.466384	0.040367	3.226102
182.862788	3238.366495	1.471389	0.040286	3.231188
183.208327	3249.374803	1.476394	0.040218	3.236260
183.737525	3260.392196	1.481399	0.040116	3.241353
183.940455	3271.450291	1.486403	0.040075	3.246413
184.394888	3282.425786	1.491408	0.039987	3.251460
184.807085	3293.433040	1.496413	0.039907	3.256508
185.190593	3304.471574	1.501417	0.039833	3.261559
185.470444	3315.503550	1.506422	0.039777	3.266585
185.967250	3326.491149	1.511427	0.039681	3.271612
186.196844	3337.507043	1.516432	0.039636	3.276609
186.767647	3348.546216	1.521436	0.039526	3.281653
186.934076	3359.556184	1.526441	0.039492	3.286624
187.371747	3370.595837	1.531446	0.039407	3.291635
187.841979	3381.566760	1.536451	0.039316	3.296613
188.173754	3392.613142	1.541455	0.039251	3.301598
188.589883	3403.596540	1.546460	0.039170	3.306559
189.117922	3414.625169	1.551465	0.039068	3.311546
189.361474	3425.662210	1.556469	0.039020	3.316493
189.611058	3436.679841	1.561474	0.038970	3.321426
189.969871	3447.696415	1.566479	0.038900	3.326364
190.213850	3458.735557	1.571484	0.038852	3.331290
190.538737	3469.711883	1.576488	0.038788	3.336191
191.046203	3480.737720	1.581493	0.038690	3.341130
191.437811	3491.754442	1.586498	0.038614	3.346043
191.909234	3502.778634	1.591503	0.038523	3.350961
192.219207	3513.767875	1.596507	0.038462	3.355837
192.778953	3524.803828	1.601512	0.038354	3.360758
193.056938	3535.842004	1.606517	0.038299	3.365637
193.355910	3546.854915	1.611521	0.038240	3.370500
193.570045	3557.833656	1.616526	0.038197	3.375331
194.199431	3568.875306	1.621531	0.038077	3.380234
194.264640	3579.913788	1.626536	0.038062	3.385058
194.701441	3590.893932	1.631540	0.037977	3.389896
194.836365	3601.939624	1.636545	0.037949	3.394719
195.280567	3612.945467	1.641550	0.037863	3.399555
195.531938	3623.958711	1.646555	0.037813	3.404363
195.745379	3634.991161	1.651559	0.037770	3.409169
196.004171	3645.955234	1.656564	0.037719	3.413944
196.593396	3657.002560	1.661569	0.037606	3.418788
196.761935	3668.008813	1.666573	0.037571	3.423556
197.104649	3679.050262	1.671578	0.037504	3.428354
197.398770	3690.054936	1.676583	0.037446	3.433124
197.630550	3701.078696	1.681588	0.037400	3.437887
197.815207	3712.095363	1.686592	0.037363	3.442635
198.198173	3723.100883	1.691597	0.037288	3.447396
198.596651	3734.102350	1.696602	0.037211	3.452150
198.911398	3745.149108	1.701606	0.037149	3.456906
199.228949	3756.128594	1.706611	0.037087	3.461628
199.546466	3767.193776	1.711616	0.037024	3.466380
199.680204	3778.183416	1.716621	0.036996	3.471071
199.965663	3789.202129	1.721625	0.036940	3.475786
200.179417	3800.213844	1.726630	0.036897	3.480484
200.504208	3811.252870	1.731635	0.036834	3.485199
200.835838	3822.241783	1.736640	0.036769	3.489888
201.188082	3833.251958	1.741644	0.036700	3.494582
201.712676	3844.271481	1.746649	0.036599	3.499293
201.814122	3855.322146	1.751654	0.036577	3.503962
202.157725	3866.310271	1.756658	0.036510	3.508626
202.501446	3877.346755	1.761663	0.036442	3.513304
202.738866	3888.342445	1.766668	0.036395	3.517947
202.970807	3899.352887	1.771673	0.036349	3.522589
203.269960	3910.385878	1.776677	0.036290	3.527242
203.668420	3921.401461	1.781682	0.036213	3.531893
204.131622	3932.390391	1.786687	0.036123	3.536534
204.387035	3943.433386	1.791692	0.036072	3.541167
204.782636	3954.438046	1.796696	0.035995	3.545795
205.220187	3965.460353	1.801701	0.035911	3.550428
205.651623	3976.437441	1.806706	0.035827	3.555036
205.926027	3987.490468	1.811710	0.035773	3.559652
206.252713	3998.502493	1.816715	0.035709	3.564250
206.634116	4009.529375	1.821720	0.035634	3.568855
207.194654	4020.507434	1.826725	0.035526	3.573453
207.562350	4031.568740	1.831729	0.035455	3.578058
207.794054	4042.552354	1.836734	0.035408	3.582610
208.155014	4053.586760	1.841739	0.035338	3.587192
208.526123	4064.593360	1.846744	0.035266	3.591757
208.820408	4075.631862	1.851748	0.035208	3.596321
209.164114	4086.630272	1.856753	0.035141	3.600869
209.584864	4097.677208	1.861758	0.035059	3.605438
209.916262	4108.704376	1.866762	0.034994	3.609984
210.231207	4119.708838	1.871767	0.034932	3.614513
210.620698	4130.743494	1.876772	0.034856	3.619057
210.968483	4141.754413	1.881777	0.034788	3.623581
211.388870	4152.770828	1.886781	0.034707	3.628109
211.559368	4163.819410	1.891786	0.034672	3.632617
212.099870	4174.771269	1.896791	0.034568	3.637121
212.681860	4185.804784	1.901795	0.034456	3.641656
212.979955	4196.842186	1.906800	0.034397	3.646157
213.520595	4207.826952	1.911805	0.034293	3.650657
213.738265	4218.866323	1.916810	0.034249	3.655138
214.151698	4229.872358	1.921814	0.034169	3.659622
214.587612	4240.904163	1.926819	0.034085	3.664113
214.650916	4251.928573	1.931824	0.034070	3.668555
214.855127	4262.941730	1.936829	0.034029	3.673003
215.336223	4273.944601	1.941833	0.033936	3.677470
215.492639	4284.957781	1.946838	0.033904	3.681902
215.781646	4295.986227	1.951843	0.033847	3.686348
216.163077	4306.972762	1.956847	0.033773	3.690782
216.495435	4318.001345	1.961852	0.033708	3.695222
217.018481	4329.010812	1.966857	0.033607	3.699669
217.263358	4340.039286	1.971862	0.033558	3.704089
217.553949	4351.069212	1.976866	0.033501	3.708509
217.982936	4362.080386	1.981871	0.033418	3.712931
218.088942	4373.113690	1.986876	0.033395	3.717323
218.326271	4384.089721	1.991881	0.033348	3.721700
218.770365	4395.098468	1.996885	0.033262	3.726106
218.970079	4406.131205	2.001890	0.033221	3.730492
219.268411	4417.165745	2.006895	0.033163	3.734883
