Wed Nov 23 19:06:18 2022

Number of Points = 2200
Depth (nm)	Load (µN)	Time (s)	Depth (V)	Load (V)
-1.458315	1.290385	0.000000	0.054370	0.895899
0.000000	7.085841	0.005005	0.054095	0.906305
1.359159	15.937308	0.010009	0.053838	0.921452
2.550145	26.480468	0.015014	0.053612	0.938923
3.798840	37.480366	0.020019	0.053375	0.956814
4.582754	48.718982	0.025024	0.053225	0.974476
5.458648	59.915966	0.030028	0.053058	0.991811
6.143841	71.141445	0.035033	0.052927	1.008786
6.831138	82.309232	0.040038	0.052795	1.025398
7.485749	93.501783	0.045043	0.052669	1.041762
8.193473	104.635344	0.050047	0.052534	1.057817
8.776650	115.823047	0.055052	0.052421	1.073643
9.185040	126.996923	0.060057	0.052342	1.089132
9.835493	138.110266	0.065061	0.052217	1.104442
10.842465	149.031973	0.070066	0.052026	1.119463
19.025540	158.793983	0.075071	0.050488	1.136213
20.011201	171.089846	0.080076	0.050300	1.152569
20.833245	182.511417	0.085080	0.050143	1.167512
22.001003	193.596159	0.090085	0.049921	1.182003
23.243808	204.705971	0.095090	0.049685	1.196384
24.107182	215.875517	0.100094	0.049520	1.210495
25.110960	226.991546	0.105099	0.049329	1.224441
26.102397	238.081580	0.110104	0.049140	1.238192
27.104516	249.154902	0.115109	0.048949	1.251777
28.193425	260.258808	0.120113	0.048742	1.265288
29.167323	271.381845	0.125118	0.048557	1.278629
29.932414	282.502366	0.130123	0.048411	1.291741
30.947534	293.612635	0.135128	0.048217	1.304813
31.693224	304.698905	0.140132	0.048075	1.317617
32.626139	315.732238	0.145137	0.047897	1.330315
33.453606	326.806738	0.150142	0.047739	1.342895
34.464673	337.895896	0.155146	0.047546	1.355447
35.072244	349.037897	0.160151	0.047430	1.367781
36.030904	360.045367	0.165156	0.047247	1.379997
36.852447	371.137013	0.170161	0.047090	1.392143
37.790659	382.194145	0.175165	0.046911	1.404190
38.565611	393.289150	0.180170	0.046763	1.416113
39.423187	404.360267	0.185175	0.046599	1.427941
40.047990	415.466344	0.190180	0.046480	1.439622
40.672146	426.530752	0.195184	0.046360	1.451165
41.307659	437.597394	0.200189	0.046238	1.462624
42.089970	448.631678	0.205194	0.046088	1.474013
42.717780	459.704717	0.210198	0.045968	1.485298
43.421126	470.767247	0.215203	0.045833	1.496514
44.140477	481.836778	0.220208	0.045695	1.507659
44.693130	492.909487	0.225213	0.045589	1.518666
45.179021	503.981831	0.230217	0.045495	1.529570
45.969327	515.005880	0.235222	0.045344	1.540455
46.689387	526.030541	0.240227	0.045206	1.551240
47.673161	537.057391	0.245232	0.045019	1.562042
48.383469	548.163599	0.250236	0.044883	1.572751
48.980343	559.235676	0.255241	0.044768	1.583318
49.668720	570.255001	0.260246	0.044636	1.593796
50.651448	581.265991	0.265250	0.044449	1.604294
51.578979	592.340789	0.270255	0.044272	1.614764
52.240175	603.449080	0.275260	0.044145	1.625110
52.940518	614.462309	0.280265	0.044011	1.635317
53.556925	625.547470	0.285269	0.043893	1.645498
54.169907	636.568795	0.290274	0.043775	1.655558
54.919606	647.611820	0.295279	0.043632	1.665619
55.679799	658.641466	0.300283	0.043486	1.675611
56.300702	669.728343	0.305288	0.043367	1.685550
56.667916	680.820260	0.310293	0.043295	1.695357
57.111932	691.848677	0.315298	0.043209	1.705076
57.983603	702.779282	0.320302	0.043043	1.714785
59.032532	713.859892	0.325307	0.042843	1.724622
59.484717	724.983187	0.330312	0.042756	1.734259
59.971277	736.001767	0.335317	0.042662	1.743764
60.544496	747.033074	0.340321	0.042551	1.753254
61.431279	758.036420	0.345326	0.042382	1.762761
62.055033	769.109629	0.350331	0.042263	1.772198
62.878622	780.128755	0.355335	0.042105	1.781599
63.244867	791.226060	0.360340	0.042034	1.790881
63.726021	802.243765	0.365345	0.041941	1.800083
64.503279	813.265836	0.370350	0.041792	1.809327
65.112947	824.316186	0.375354	0.041675	1.818499
66.358475	835.253584	0.380359	0.041439	1.827713
67.087262	846.363517	0.385364	0.041299	1.836873
67.645380	857.451477	0.390369	0.041192	1.845922
68.309498	868.472480	0.395373	0.041064	1.854903
68.649988	879.544098	0.400378	0.040998	1.863791
69.149535	890.552539	0.405383	0.040901	1.872631
69.732091	901.580466	0.410387	0.040789	1.881467
70.318460	912.615516	0.415392	0.040676	1.890268
71.250692	923.614274	0.420397	0.040499	1.899093
71.902782	934.687929	0.425402	0.040374	1.907860
72.468731	945.712659	0.430406	0.040265	1.916525
73.384316	956.717834	0.435411	0.040090	1.925229
74.524705	967.689902	0.440416	0.039874	1.933928
75.731882	978.739202	0.445421	0.039644	1.942664
77.425038	989.711557	0.450425	0.039324	1.951430
78.181742	1000.883447	0.455430	0.039179	1.960061
78.905112	1011.891728	0.460435	0.039041	1.968523
79.833642	1022.937830	0.465439	0.038864	1.977030
80.240402	1034.037280	0.470444	0.038785	1.985405
80.815096	1045.034009	0.475449	0.038674	1.993712
81.491800	1056.062768	0.480454	0.038544	2.002034
82.003283	1067.117717	0.485458	0.038446	2.010299
82.633399	1078.147890	0.490463	0.038325	2.018541
83.372962	1089.148456	0.495468	0.038183	2.026755
84.100483	1100.183805	0.500472	0.038044	2.034958
84.709477	1111.222232	0.505477	0.037927	2.043101
85.265821	1122.275616	0.510482	0.037820	2.051209
85.718275	1133.312116	0.515487	0.037732	2.059247
86.228462	1144.305550	0.520491	0.037634	2.067237
87.339454	1155.321567	0.525496	0.037423	2.075358
87.737698	1166.392994	0.530501	0.037345	2.083314
88.401580	1177.415928	0.535506	0.037218	2.091269
89.045972	1188.443041	0.540510	0.037094	2.099192
89.934423	1199.432742	0.545515	0.036925	2.107117
90.298189	1210.527496	0.550520	0.036854	2.114961
90.860372	1221.549010	0.555524	0.036746	2.122771
91.436089	1232.549219	0.560529	0.036635	2.130541
92.061328	1243.580626	0.565534	0.036515	2.138316
92.683988	1254.625856	0.570539	0.036395	2.146071
93.239900	1265.661263	0.575543	0.036288	2.153776
93.836947	1276.652174	0.580548	0.036173	2.161432
94.558861	1287.710152	0.585553	0.036035	2.169136
94.973000	1298.753118	0.590558	0.035955	2.176731
95.563173	1309.752097	0.595562	0.035841	2.184310
96.111820	1320.796025	0.600567	0.035736	2.191883
96.435207	1331.855832	0.605572	0.035672	2.199390
96.952183	1342.836200	0.610576	0.035572	2.206861
97.653618	1353.878506	0.615581	0.035438	2.214390
98.153377	1364.893564	0.620586	0.035342	2.221830
98.722498	1375.937476	0.625591	0.035232	2.229280
99.185086	1386.967825	0.630595	0.035143	2.236671
99.764183	1397.987561	0.635600	0.035031	2.244057
100.378045	1408.991973	0.640605	0.034913	2.251417
100.928081	1420.037640	0.645610	0.034807	2.258764
101.491632	1431.066546	0.650614	0.034699	2.266080
101.909806	1442.105674	0.655619	0.034618	2.273348
102.650652	1453.079930	0.660624	0.034476	2.280619
103.259569	1464.128002	0.665628	0.034359	2.287887
103.732311	1475.167115	0.670633	0.034267	2.295096
104.430297	1486.154662	0.675638	0.034134	2.302298
105.104654	1497.218633	0.680643	0.034004	2.309521
105.385849	1508.276223	0.685647	0.033949	2.316633
105.994187	1519.260900	0.690652	0.033832	2.323747
106.323091	1530.315905	0.695657	0.033768	2.330824
106.855397	1541.312263	0.700661	0.033665	2.337885
107.262026	1552.362852	0.705666	0.033586	2.344933
107.840376	1563.347355	0.710671	0.033475	2.351954
108.309160	1574.401156	0.715676	0.033384	2.358974
108.622170	1585.433803	0.720680	0.033323	2.365928
109.218367	1596.438649	0.725685	0.033208	2.372903
109.717035	1607.442560	0.730690	0.033112	2.379836
110.468601	1618.469348	0.735695	0.032968	2.386814
111.195102	1629.509487	0.740699	0.032829	2.393776
111.416727	1640.565370	0.745704	0.032785	2.400624
111.927578	1651.567360	0.750709	0.032686	2.407478
112.655894	1662.570567	0.755713	0.032547	2.414356
113.409546	1673.543626	0.760718	0.032403	2.421202
114.101494	1684.624665	0.765723	0.032270	2.428081
114.655997	1695.663729	0.770728	0.032163	2.434888
115.067393	1706.677830	0.775732	0.032083	2.441632
115.707309	1717.688571	0.780737	0.031960	2.448401
116.246186	1728.729259	0.785742	0.031857	2.455149
116.836862	1739.730779	0.790747	0.031743	2.461865
117.395248	1750.772469	0.795751	0.031636	2.468580
117.882517	1761.786536	0.800756	0.031541	2.475246
118.363073	1772.824278	0.805761	0.031448	2.481907
118.656110	1783.872372	0.810765	0.031391	2.488520
119.527115	1794.824691	0.815770	0.031225	2.495171
120.096866	1805.882998	0.820775	0.031115	2.501807
120.708799	1816.891681	0.825780	0.030997	2.508405
121.061160	1827.961028	0.830784	0.030929	2.514972
121.541793	1838.939997	0.835789	0.030836	2.521492
122.068029	1849.985477	0.840794	0.030734	2.528044
122.443381	1861.008093	0.845799	0.030661	2.534536
122.873522	1872.021339	0.850803	0.030578	2.541017
123.282507	1883.029706	0.855808	0.030498	2.547474
123.814125	1894.094559	0.860813	0.030396	2.553970
124.084547	1905.091047	0.865817	0.030342	2.560361
124.478560	1916.136951	0.870822	0.030265	2.566788
125.100137	1927.126605	0.875827	0.030146	2.573208
125.510197	1938.217038	0.880832	0.030066	2.579631
125.776636	1949.168620	0.885836	0.030014	2.585933
126.204670	1960.221597	0.890841	0.029931	2.592306
126.458187	1971.223875	0.895846	0.029880	2.598602
127.075767	1982.218035	0.900850	0.029762	2.604945
127.775283	1993.237354	0.905855	0.029628	2.611302
128.292175	2004.281441	0.910860	0.029528	2.617624
128.836835	2015.273766	0.915865	0.029423	2.623906
129.346473	2026.328599	0.920869	0.029325	2.630202
129.725746	2037.344501	0.925874	0.029251	2.636437
130.021412	2048.380660	0.930879	0.029193	2.642654
130.220654	2059.376635	0.935884	0.029153	2.648817
130.911614	2070.378486	0.940888	0.029020	2.655056
131.156318	2081.419821	0.945893	0.028972	2.661223
131.466096	2092.439297	0.950898	0.028911	2.667376
131.947803	2103.441901	0.955902	0.028818	2.673534
132.265592	2114.478845	0.960907	0.028755	2.679669
132.899434	2125.452657	0.965912	0.028634	2.685810
133.293703	2136.541431	0.970917	0.028557	2.691958
133.629886	2147.527621	0.975921	0.028491	2.698026
134.134076	2158.533954	0.980926	0.028394	2.704120
134.635805	2169.572864	0.985931	0.028297	2.710218
134.857177	2180.603841	0.990936	0.028253	2.716249
135.090864	2191.640754	0.995940	0.028206	2.722273
135.427369	2202.648636	1.000945	0.028140	2.728284
135.776264	2213.665172	1.005950	0.028072	2.734290
135.872048	2224.692560	1.010954	0.028051	2.740244
136.290478	2235.685119	1.015959	0.027970	2.746222
136.824092	2246.714959	1.020964	0.027867	2.752226
137.184891	2257.713370	1.025969	0.027797	2.758171
137.304996	2268.789751	1.030973	0.027771	2.764104
137.648611	2279.778442	1.035978	0.027704	2.770016
138.048338	2290.799354	1.040983	0.027626	2.775941
138.328860	2301.825014	1.045988	0.027571	2.781835
138.586421	2312.846161	1.050992	0.027520	2.787712
139.060368	2323.828693	1.055997	0.027428	2.793591
139.449179	2334.896474	1.061002	0.027353	2.799488
139.921662	2345.866354	1.066006	0.027261	2.805335
140.355500	2356.933656	1.071011	0.027177	2.811215
140.479439	2367.961697	1.076016	0.027151	2.817011
140.878885	2378.948557	1.081021	0.027074	2.822819
141.172114	2389.959742	1.086025	0.027016	2.828610
141.741858	2400.974162	1.091030	0.026906	2.834435
142.228542	2412.007586	1.096035	0.026812	2.840245
142.735399	2423.012134	1.101039	0.026714	2.846031
143.085362	2434.076121	1.106044	0.026646	2.851811
143.363393	2445.059901	1.111049	0.026591	2.857526
143.672897	2456.079948	1.116054	0.026530	2.863253
144.209006	2467.110298	1.121058	0.026427	2.869010
144.450302	2478.123949	1.126063	0.026379	2.874700
144.984489	2489.133025	1.131068	0.026276	2.880423
145.285127	2500.173476	1.136073	0.026217	2.886113
145.783837	2511.195442	1.141077	0.026120	2.891814
146.087323	2522.195936	1.146082	0.026061	2.897462
146.462331	2533.212928	1.151087	0.025988	2.903119
146.821233	2544.240764	1.156091	0.025918	2.908767
147.126189	2555.269309	1.161096	0.025858	2.914396
147.405113	2566.285433	1.166101	0.025803	2.920004
147.952573	2577.293704	1.171106	0.025697	2.925639
148.308574	2588.313346	1.176110	0.025628	2.931239
148.871675	2599.318699	1.181115	0.025519	2.936853
149.243506	2610.339829	1.186120	0.025447	2.942434
149.454012	2621.389577	1.191125	0.025404	2.947995
149.784520	2632.372004	1.196129	0.025340	2.953529
150.218175	2643.411156	1.201134	0.025256	2.959097
150.611258	2654.423619	1.206139	0.025179	2.964636
150.974520	2665.466169	1.211143	0.025108	2.970174
151.182132	2676.473508	1.216148	0.025067	2.975661
151.677778	2687.483067	1.221153	0.024971	2.981182
151.932656	2698.497816	1.226158	0.024920	2.986659
152.440578	2709.502906	1.231162	0.024822	2.992159
152.621578	2720.532230	1.236167	0.024786	2.997612
153.036500	2731.553299	1.241172	0.024705	3.003086
153.354861	2742.579415	1.246177	0.024643	3.008538
153.676857	2753.589674	1.251181	0.024579	3.013973
153.922665	2764.612370	1.256186	0.024531	3.019392
154.472886	2775.616250	1.261191	0.024425	3.024838
154.906726	2786.663308	1.266195	0.024340	3.030277
155.243400	2797.671069	1.271200	0.024275	3.035674
155.675498	2808.678582	1.276205	0.024191	3.041074
156.148674	2819.684811	1.281210	0.024099	3.046470
156.445386	2830.705642	1.286214	0.024041	3.051838
156.950839	2841.729846	1.291219	0.023943	3.057228
157.141642	2852.748558	1.296224	0.023905	3.062561
157.452740	2863.791777	1.301228	0.023844	3.067913
157.746307	2874.773229	1.306233	0.023786	3.073224
158.138912	2885.812374	1.311238	0.023709	3.078567
158.463417	2896.822756	1.316243	0.023646	3.083878
158.967202	2907.840463	1.321247	0.023549	3.089208
159.176944	2918.868606	1.326252	0.023506	3.094493
159.435045	2929.883756	1.331257	0.023455	3.099768
159.780836	2940.888032	1.336262	0.023388	3.105042
160.274220	2951.917156	1.341266	0.023292	3.110340
160.553932	2962.927099	1.346271	0.023237	3.115589
160.998027	2973.945064	1.351276	0.023151	3.120856
161.695366	2984.939201	1.356280	0.023018	3.126138
162.271914	2995.969707	1.361285	0.022907	3.131412
162.869429	3006.980013	1.366290	0.022792	3.136670
163.493402	3017.995656	1.371295	0.022672	3.141924
163.823338	3029.027451	1.376299	0.022607	3.147138
164.269823	3040.066384	1.381304	0.022521	3.152361
164.515199	3051.070665	1.386309	0.022472	3.157533
165.186048	3062.065084	1.391314	0.022343	3.162749
165.634808	3073.093701	1.396318	0.022256	3.167942
165.990982	3084.139724	1.401323	0.022187	3.173122
166.133132	3095.137372	1.406328	0.022158	3.178242
166.607395	3106.156487	1.411332	0.022066	3.183409
166.831718	3117.168223	1.416337	0.022021	3.188530
167.227227	3128.203529	1.421342	0.021944	3.193676
167.646336	3139.203396	1.426347	0.021863	3.198801
167.956659	3150.233282	1.431351	0.021802	3.203917
168.315630	3161.248623	1.436356	0.021732	3.209025
168.454314	3172.272243	1.441361	0.021703	3.214099
168.667929	3183.280783	1.446366	0.021660	3.219168
169.087736	3194.294325	1.451370	0.021579	3.224258
169.465606	3205.309777	1.456375	0.021505	3.229336
169.665949	3216.338746	1.461380	0.021465	3.234388
170.115243	3227.337296	1.466384	0.021378	3.239451
170.418995	3238.352182	1.471389	0.021318	3.244495
170.782070	3249.399107	1.476394	0.021247	3.249553
171.071782	3260.396432	1.481399	0.021190	3.254571
171.428865	3271.413063	1.486403	0.021120	3.259599
171.675108	3282.440863	1.491408	0.021071	3.264609
171.885029	3293.451232	1.496413	0.021029	3.269599
172.149958	3304.473964	1.501417	0.020977	3.274595
172.375378	3315.481318	1.506422	0.020932	3.279570
172.771647	3326.511713	1.511427	0.020855	3.284570
172.850770	3337.536352	1.516432	0.020837	3.289520
173.256796	3348.531764	1.521436	0.020758	3.294490
173.485720	3359.563267	1.526441	0.020712	3.299447
173.743126	3370.562834	1.531446	0.020661	3.304385
174.025439	3381.581843	1.536451	0.020606	3.309328
174.410253	3392.604598	1.541455	0.020531	3.314278
174.685574	3403.612718	1.546460	0.020476	3.319200
174.963428	3414.631802	1.551465	0.020422	3.324120
175.288766	3425.660367	1.556469	0.020358	3.329043
175.663475	3436.658362	1.561474	0.020285	3.333951
175.734252	3447.693175	1.566479	0.020269	3.338830
176.064943	3458.704697	1.571484	0.020204	3.343724
176.362529	3469.703697	1.576488	0.020145	3.348601
176.547925	3480.760658	1.581493	0.020108	3.353483
176.878102	3491.738249	1.586498	0.020043	3.358340
177.379708	3502.762192	1.591503	0.019946	3.363232
177.724781	3513.788185	1.596507	0.019879	3.368098
178.360892	3524.776510	1.601512	0.019757	3.372977
178.548276	3535.824349	1.606517	0.019719	3.377819
178.824602	3546.838878	1.611521	0.019664	3.382651
179.135157	3557.841154	1.616526	0.019603	3.387474
179.636089	3568.844216	1.621531	0.019507	3.392314
180.149844	3579.890866	1.626536	0.019407	3.397168
180.608138	3590.876261	1.631540	0.019319	3.401981
180.897941	3601.931930	1.636545	0.019262	3.406797
181.276235	3612.921692	1.641550	0.019188	3.411589
181.556594	3623.948041	1.646555	0.019133	3.416378
182.044381	3634.963582	1.651559	0.019038	3.421180
182.168682	3645.987186	1.656564	0.019012	3.425935
182.549667	3657.006567	1.661569	0.018938	3.430713
182.777668	3668.028039	1.666573	0.018893	3.435466
183.058278	3679.021957	1.671578	0.018837	3.440208
183.390247	3690.054343	1.676583	0.018772	3.444965
183.554565	3701.097477	1.681588	0.018739	3.449701
183.804730	3712.064087	1.686592	0.018689	3.454407
184.142211	3723.095869	1.691597	0.018623	3.459145
184.514098	3734.094675	1.696602	0.018550	3.463866
185.226313	3745.124661	1.701606	0.018414	3.468634
185.493916	3756.149258	1.706611	0.018361	3.473341
185.940155	3767.148053	1.711616	0.018275	3.478052
186.172346	3778.190701	1.716621	0.018228	3.482749
186.560743	3789.193036	1.721625	0.018153	3.487442
186.865047	3800.183989	1.726630	0.018093	3.492113
187.076416	3811.239872	1.731635	0.018050	3.496795
187.286598	3822.245004	1.736640	0.018008	3.501449
187.502300	3833.278340	1.741644	0.017965	3.506109
187.556345	3844.291025	1.746649	0.017952	3.510736
187.663791	3855.297016	1.751654	0.017929	3.515360
188.008084	3866.298606	1.756658	0.017862	3.520003
188.527470	3877.299531	1.761663	0.017762	3.524660
188.891536	3888.359217	1.766668	0.017691	3.529317
188.990397	3899.364973	1.771673	0.017669	3.533915
189.302412	3910.363346	1.776677	0.017608	3.538528
189.700933	3921.372452	1.781682	0.017531	3.543150
190.036846	3932.410245	1.786687	0.017465	3.547770
190.410134	3943.405913	1.791692	0.017392	3.552371
190.532251	3954.435011	1.796696	0.017367	3.556952
190.891901	3965.452850	1.801701	0.017296	3.561548
191.163928	3976.469548	1.806706	0.017243	3.566128
191.463532	3987.475813	1.811710	0.017184	3.570702
191.549194	3998.510047	1.816715	0.017165	3.575257
191.998106	4009.482812	1.821720	0.017078	3.579821
192.344095	4020.544006	1.826725	0.017010	3.584404
192.586757	4031.546902	1.831729	0.016962	3.588946
192.802160	4042.560591	1.836734	0.016919	3.593483
193.192392	4053.590447	1.841739	0.016843	3.598041
193.491090	4064.578880	1.846744	0.016784	3.602565
194.015282	4075.602276	1.851748	0.016683	3.607123
194.261353	4086.617768	1.856753	0.016634	3.611642
194.640110	4097.660239	1.861758	0.016560	3.616180
195.104217	4108.678073	1.866762	0.016470	3.620711
195.636479	4119.721996	1.871767	0.016368	3.625255
195.969521	4130.714607	1.876772	0.016303	3.629751
196.166768	4141.765668	1.881777	0.016263	3.634250
196.148490	4152.771957	1.886781	0.016264	3.638702
196.507081	4163.774597	1.891786	0.016194	3.643188
196.680991	4174.843075	1.896791	0.016158	3.647675
196.901714	4185.784355	1.901795	0.016114	3.652110
197.353978	4196.822290	1.906800	0.016027	3.656603
197.601786	4207.851234	1.911805	0.015977	3.661065
197.832552	4218.855577	1.916810	0.015931	3.665511
198.079923	4229.880014	1.921814	0.015882	3.669960
198.388540	4240.878567	1.926819	0.015821	3.674400
199.000903	4251.885865	1.931824	0.015704	3.678870
199.175763	4262.928864	1.936829	0.015668	3.683303
199.485624	4273.974205	1.941833	0.015607	3.687746
199.640353	4284.945279	1.946838	0.015576	3.692137
200.162554	4295.965231	1.951843	0.015475	3.696581
200.532536	4306.954644	1.956847	0.015403	3.700992
200.915276	4317.998190	1.961852	0.015328	3.705419
200.961240	4329.047024	1.966857	0.015317	3.709809
201.339356	4340.004395	1.971862	0.015243	3.714192
201.415068	4351.048157	1.976866	0.015226	3.718572
201.784703	4362.068944	1.981871	0.015154	3.722969
202.127699	4373.083107	1.986876	0.015087	3.727355
202.537683	4384.073387	1.991881	0.015007	3.731733
202.968533	4395.091348	1.996885	0.014924	3.736118
203.260344	4406.127640	2.001890	0.014866	3.740492
203.621648	4417.142466	2.006895	0.014796	3.744859
