Wed Nov 23 18:28:15 2022

Number of Points = 2200
Depth (nm)	Load (µN)	Time (s)	Depth (V)	Load (V)
-1.289952	1.021502	0.000000	0.004960	1.043953
0.000000	7.726850	0.005005	0.004716	1.054015
1.439957	17.047371	0.010009	0.004444	1.067663
2.590896	27.788456	0.015014	0.004225	1.082922
3.983668	38.781712	0.020019	0.003961	1.098425
5.003191	49.973816	0.025024	0.003767	1.113793
6.161523	61.099123	0.030028	0.003547	1.128930
6.981402	72.287057	0.035033	0.003390	1.143786
7.920839	83.399109	0.040038	0.003211	1.158410
10.475554	93.985023	0.045043	0.002729	1.172936
15.380746	104.835351	0.050047	0.001806	1.188675
16.980941	116.468531	0.055052	0.001503	1.203682
19.247816	127.547386	0.060057	0.001075	1.218128
20.913444	138.748568	0.065061	0.000759	1.232288
22.202971	149.975140	0.070066	0.000515	1.246153
23.368771	161.100996	0.075071	0.000293	1.259694
25.033635	172.107996	0.080076	-0.000022	1.273164
26.101075	183.284425	0.085080	-0.000225	1.286437
27.292492	194.434518	0.090085	-0.000451	1.299594
28.386710	205.494771	0.095090	-0.000659	1.312479
30.055739	216.482836	0.100094	-0.000975	1.325389
30.951139	227.690879	0.105099	-0.001146	1.338106
32.212827	238.705314	0.110104	-0.001386	1.350638
33.205019	249.832001	0.115109	-0.001574	1.363069
34.449422	260.846710	0.120113	-0.001811	1.375365
35.548629	271.989857	0.125118	-0.002020	1.387631
36.514887	283.058511	0.130123	-0.002204	1.399661
37.804123	294.065475	0.135128	-0.002448	1.411645
39.003184	305.183034	0.140132	-0.002676	1.423607
39.902747	316.272672	0.145137	-0.002848	1.435331
41.254334	327.277007	0.150142	-0.003104	1.447037
42.271522	338.411238	0.155146	-0.003298	1.458658
43.432556	349.442719	0.160151	-0.003518	1.470136
44.083486	360.603026	0.165156	-0.003643	1.481470
45.256012	371.565961	0.170161	-0.003866	1.492708
46.320588	382.632993	0.175165	-0.004068	1.503925
47.190420	393.735312	0.180170	-0.004234	1.515025
47.954749	404.832216	0.185175	-0.004380	1.526002
48.702403	415.878379	0.190180	-0.004524	1.536846
49.656080	426.884204	0.195184	-0.004705	1.547645
50.950826	437.889550	0.200189	-0.004951	1.558484
51.868316	449.012675	0.205194	-0.005126	1.569231
52.771414	460.098516	0.210198	-0.005298	1.579865
53.459778	471.144088	0.215203	-0.005430	1.590319
54.603012	482.151597	0.220208	-0.005647	1.600818
55.569947	493.202294	0.225213	-0.005831	1.611231
56.794337	504.267637	0.230217	-0.006064	1.621673
57.681658	515.296565	0.235222	-0.006233	1.631906
58.862220	526.339025	0.240227	-0.006457	1.642181
59.599928	537.446098	0.245232	-0.006598	1.652308
60.612738	548.450300	0.250236	-0.006791	1.662369
61.714280	559.476763	0.255241	-0.007001	1.672416
62.838584	570.536322	0.260246	-0.007214	1.682439
63.484043	581.626664	0.265250	-0.007338	1.692281
64.941955	592.599254	0.270255	-0.007614	1.702212
65.622587	603.739760	0.275260	-0.007745	1.711993
66.502417	614.744689	0.280265	-0.007913	1.721663
67.355447	625.786304	0.285269	-0.008076	1.731301
68.456128	636.800300	0.290274	-0.008285	1.740936
69.020041	647.936672	0.295279	-0.008393	1.750462
69.759566	658.956888	0.300283	-0.008535	1.759890
70.905606	669.896766	0.305288	-0.008753	1.769320
72.018948	680.956943	0.310293	-0.008964	1.778789
72.832141	692.071888	0.315298	-0.009120	1.788165
74.041105	703.018407	0.320302	-0.009349	1.797469
74.965071	714.137494	0.325307	-0.009525	1.806782
75.616662	725.183472	0.330312	-0.009650	1.815912
76.420840	736.215353	0.335317	-0.009804	1.825027
77.225022	747.266284	0.340321	-0.009958	1.834111
77.979444	758.288363	0.345326	-0.010102	1.843114
78.830517	769.333171	0.350331	-0.010264	1.852117
79.571689	780.398220	0.355335	-0.010406	1.861062
80.172014	791.426462	0.360340	-0.010521	1.869897
81.021082	802.421597	0.365345	-0.010683	1.878731
82.261584	813.422571	0.370350	-0.010919	1.887634
82.944214	824.536135	0.375354	-0.011050	1.896432
83.697161	835.567910	0.380359	-0.011194	1.905145
84.330634	846.585412	0.385364	-0.011315	1.913775
84.917426	857.663929	0.390369	-0.011428	1.922400
85.518908	868.662421	0.395373	-0.011544	1.930929
86.837352	879.634484	0.400378	-0.011794	1.939589
87.515222	890.720707	0.405383	-0.011924	1.948128
88.593117	901.733705	0.410387	-0.012129	1.956679
89.338274	912.781215	0.415392	-0.012271	1.965132
90.205903	923.834137	0.420397	-0.012437	1.973584
90.928363	934.852163	0.425402	-0.012575	1.981936
92.058981	945.855695	0.430406	-0.012790	1.990347
92.475312	956.971139	0.435411	-0.012871	1.998623
93.365287	967.914560	0.440416	-0.013041	2.006858
94.235708	978.999456	0.445421	-0.013207	2.015157
95.040506	990.033951	0.450425	-0.013361	2.023369
95.951954	1001.012326	0.455430	-0.013534	2.031533
96.617524	1012.115825	0.460435	-0.013662	2.039693
96.835908	1023.194880	0.465439	-0.013706	2.047694
97.930589	1034.121214	0.470444	-0.013914	2.055768
98.859660	1045.156137	0.475449	-0.014091	2.063847
99.590056	1056.233664	0.480454	-0.014231	2.071876
100.206231	1067.258616	0.485458	-0.014349	2.079810
100.829626	1078.307951	0.490463	-0.014469	2.087732
101.371634	1089.350328	0.495468	-0.014573	2.095599
102.176448	1100.313903	0.500472	-0.014727	2.103445
102.998164	1111.357811	0.505477	-0.014884	2.111320
103.898436	1122.388911	0.510482	-0.015055	2.119176
104.668281	1133.423146	0.515487	-0.015203	2.126974
105.399258	1144.493418	0.520491	-0.015342	2.134758
105.932135	1155.490800	0.525496	-0.015445	2.142419
106.681946	1166.522788	0.530501	-0.015589	2.150125
107.118568	1177.569194	0.535506	-0.015673	2.157741
108.163587	1188.540438	0.540510	-0.015872	2.165419
108.811798	1199.623260	0.545515	-0.015996	2.173055
109.782868	1210.594200	0.550520	-0.016181	2.180661
110.593755	1221.653895	0.555524	-0.016336	2.188264
111.373352	1232.681491	0.560529	-0.016485	2.195811
111.964962	1243.724447	0.565534	-0.016599	2.203301
112.743005	1254.731958	0.570539	-0.016748	2.210783
113.427004	1265.769118	0.575543	-0.016879	2.218238
114.258048	1276.802065	0.580548	-0.017038	2.225698
114.664363	1287.844573	0.585553	-0.017116	2.233045
115.651664	1298.828523	0.590558	-0.017304	2.240457
116.107178	1309.895427	0.595562	-0.017393	2.247782
116.976569	1320.933637	0.600567	-0.017559	2.255155
117.386951	1331.951903	0.605572	-0.017638	2.262391
118.147236	1342.941623	0.610576	-0.017784	2.269660
118.781511	1353.976480	0.615581	-0.017905	2.276908
119.281794	1365.032668	0.620586	-0.018002	2.284118
120.092362	1376.024320	0.625591	-0.018157	2.291330
120.481368	1387.116749	0.630595	-0.018233	2.298494
121.082092	1398.059462	0.635600	-0.018348	2.305585
122.151179	1409.079179	0.640605	-0.018551	2.312802
122.944891	1420.122028	0.645610	-0.018703	2.319952
123.749474	1431.151998	0.650614	-0.018857	2.327075
124.096772	1442.245919	0.655619	-0.018925	2.334120
124.543713	1453.225387	0.660624	-0.019011	2.341093
125.067098	1464.244517	0.665628	-0.019112	2.348085
125.701534	1475.280663	0.670633	-0.019234	2.355091
126.268548	1486.285626	0.675638	-0.019343	2.362042
127.004748	1497.318506	0.680643	-0.019484	2.369024
127.166179	1508.397068	0.685647	-0.019517	2.375896
127.578704	1519.392406	0.690652	-0.019597	2.382749
128.031049	1530.374070	0.695657	-0.019685	2.389581
129.333977	1541.342808	0.700661	-0.019932	2.396557
129.844527	1552.464268	0.705666	-0.020030	2.403447
130.626684	1563.438230	0.710671	-0.020180	2.410281
131.395075	1574.470958	0.715676	-0.020327	2.417128
132.081991	1585.494158	0.720680	-0.020458	2.423934
132.748901	1596.522783	0.725685	-0.020586	2.430720
133.358081	1607.568113	0.730690	-0.020703	2.437486
133.919559	1618.572344	0.735695	-0.020811	2.444199
134.680206	1629.592978	0.740699	-0.020957	2.450941
135.101039	1640.631927	0.745704	-0.021039	2.457610
136.031651	1651.611823	0.750709	-0.021216	2.464324
136.915481	1662.651211	0.755713	-0.021384	2.471046
137.566677	1673.683658	0.760718	-0.021509	2.477701
138.068983	1684.729247	0.765723	-0.021606	2.484317
138.687895	1695.748244	0.770728	-0.021725	2.490921
139.333606	1706.751144	0.775732	-0.021849	2.497504
139.945083	1717.789255	0.780737	-0.021967	2.504083
140.489874	1728.820833	0.785742	-0.022072	2.510628
141.125198	1739.824472	0.790747	-0.022193	2.517157
141.352498	1750.903878	0.795751	-0.022239	2.523636
141.924482	1761.876039	0.800756	-0.022349	2.530101
142.516827	1772.883749	0.805761	-0.022463	2.536574
143.260833	1783.916723	0.810765	-0.022605	2.543072
143.738190	1794.935618	0.815770	-0.022697	2.549496
144.453703	1805.958535	0.820775	-0.022834	2.555951
144.957859	1816.999985	0.825780	-0.022932	2.562360
145.628274	1828.007526	0.830784	-0.023060	2.568765
145.788586	1839.121808	0.835789	-0.023093	2.575120
146.143883	1850.073982	0.840794	-0.023162	2.581404
146.515079	1861.093759	0.845799	-0.023235	2.587714
147.327674	1872.071329	0.850803	-0.023390	2.594064
147.587128	1883.144597	0.855808	-0.023441	2.600352
148.338222	1894.124913	0.860813	-0.023585	2.606661
148.996939	1905.152091	0.865817	-0.023711	2.612965
149.576084	1916.174405	0.870822	-0.023823	2.619236
150.005742	1927.198850	0.875827	-0.023906	2.625466
150.627253	1938.218064	0.880832	-0.024026	2.631713
151.094963	1949.258172	0.885836	-0.024116	2.637929
151.783701	1960.240486	0.890841	-0.024248	2.644138
152.455481	1971.297326	0.895846	-0.024377	2.650370
153.154167	1982.295195	0.900850	-0.024511	2.656559
153.625223	1993.351310	0.905855	-0.024602	2.662726
153.903390	2004.359387	0.910860	-0.024657	2.668818
154.170405	2015.386826	0.915865	-0.024709	2.674906
154.768247	2026.385877	0.920869	-0.024824	2.681021
155.334502	2037.404771	0.925874	-0.024933	2.687127
156.150357	2048.394132	0.930879	-0.025089	2.693246
156.554478	2059.443993	0.935884	-0.025168	2.699313
157.110257	2070.441962	0.940888	-0.025275	2.705365
157.590070	2081.471293	0.945893	-0.025368	2.711407
158.143260	2092.491143	0.950898	-0.025474	2.717442
158.674755	2103.511080	0.955902	-0.025577	2.723460
159.365895	2114.524522	0.960907	-0.025709	2.729489
159.812868	2125.548268	0.965912	-0.025796	2.735468
160.567833	2136.550941	0.970917	-0.025940	2.741474
161.037840	2147.594191	0.975921	-0.026031	2.747441
161.810715	2158.578343	0.980926	-0.026179	2.753414
162.298392	2169.637722	0.985931	-0.026273	2.759367
162.945373	2180.633444	0.990936	-0.026397	2.765299
163.335033	2191.707957	0.995940	-0.026473	2.771217
163.945983	2202.672991	1.000945	-0.026590	2.777102
164.295681	2213.720940	1.005950	-0.026659	2.782974
164.672311	2224.750357	1.010954	-0.026732	2.788829
164.933469	2235.773771	1.015959	-0.026784	2.794649
165.657176	2246.743584	1.020964	-0.026922	2.800504
165.952211	2257.803958	1.025969	-0.026980	2.806325
166.665660	2268.815399	1.030973	-0.027117	2.812176
166.991427	2279.834376	1.035978	-0.027181	2.817955
167.659894	2290.810574	1.040983	-0.027309	2.823756
168.400850	2301.869232	1.045988	-0.027451	2.829599
168.923377	2312.878836	1.050992	-0.027551	2.835369
169.389682	2323.919780	1.055997	-0.027642	2.841135
169.629406	2334.943094	1.061002	-0.027689	2.846844
170.032904	2345.962671	1.066006	-0.027768	2.852565
170.480404	2356.951046	1.071011	-0.027854	2.858266
170.925014	2368.002513	1.076016	-0.027941	2.863987
171.310331	2379.009113	1.081021	-0.028016	2.869665
171.710333	2390.027937	1.086025	-0.028093	2.875339
172.317482	2401.056452	1.091030	-0.028210	2.881040
172.703684	2412.061940	1.096035	-0.028285	2.886683
173.187563	2423.103320	1.101039	-0.028379	2.892348
173.379847	2434.112700	1.106044	-0.028418	2.897941
173.925142	2445.096343	1.111049	-0.028523	2.903564
174.561900	2456.146618	1.116054	-0.028645	2.909224
175.078348	2467.142668	1.121058	-0.028744	2.914827
175.718813	2478.160682	1.126063	-0.028867	2.920449
176.417550	2489.189793	1.131068	-0.029001	2.926075
176.675556	2500.237448	1.136073	-0.029052	2.931631
177.096905	2511.214691	1.141077	-0.029134	2.937167
177.863985	2522.226797	1.146082	-0.029281	2.942762
178.317146	2533.269826	1.151087	-0.029369	2.948314
178.865353	2544.282676	1.156091	-0.029474	2.953855
179.357509	2555.306657	1.161096	-0.029569	2.959383
179.784765	2566.319565	1.166101	-0.029652	2.964885
180.516846	2577.336058	1.171106	-0.029792	2.970423
180.759167	2588.390424	1.176110	-0.029840	2.975898
181.246991	2599.377960	1.181115	-0.029935	2.981365
181.483458	2610.415473	1.186120	-0.029982	2.986810
181.989137	2621.406985	1.191125	-0.030079	2.992262
182.400627	2632.428267	1.196129	-0.030159	2.997704
183.025835	2643.424372	1.201134	-0.030279	3.003156
183.639495	2654.492801	1.206139	-0.030397	3.008631
184.190400	2665.471593	1.211143	-0.030503	3.014043
184.540862	2676.511498	1.216148	-0.030572	3.019446
185.025053	2687.523119	1.221153	-0.030665	3.024845
185.507524	2698.547706	1.226158	-0.030759	3.030240
185.948979	2709.567155	1.231162	-0.030844	3.035617
186.408705	2720.599229	1.236167	-0.030933	3.040994
186.923105	2731.571285	1.241172	-0.031033	3.046339
187.396755	2742.632012	1.246177	-0.031124	3.051712
187.855434	2753.610832	1.251181	-0.031213	3.057033
188.448245	2764.639331	1.256186	-0.031327	3.062389
188.875411	2775.680705	1.261191	-0.031410	3.067717
189.119744	2786.697630	1.266195	-0.031458	3.072998
189.505351	2797.701060	1.271200	-0.031533	3.078284
189.929735	2808.732741	1.276205	-0.031616	3.083580
190.424699	2819.747119	1.281210	-0.031711	3.088868
190.640802	2830.771585	1.286214	-0.031755	3.094113
190.972684	2841.786065	1.291219	-0.031820	3.099360
191.519214	2852.770109	1.296224	-0.031925	3.104613
191.998137	2863.823838	1.301228	-0.032018	3.109881
192.389420	2874.830867	1.306233	-0.032094	3.115106
193.120124	2885.837481	1.311238	-0.032234	3.120369
193.242002	2896.879701	1.316243	-0.032259	3.125556
193.796300	2907.897557	1.321247	-0.032366	3.130782
194.375258	2918.884319	1.326252	-0.032477	3.135988
194.886673	2929.911777	1.331257	-0.032576	3.141195
195.247268	2940.937099	1.336262	-0.032646	3.146371
195.678173	2951.952304	1.341266	-0.032730	3.151544
195.948413	2962.988560	1.346271	-0.032783	3.156696
196.568174	2973.955199	1.351276	-0.032902	3.161855
196.827735	2985.026597	1.356280	-0.032954	3.167005
197.415759	2995.998840	1.361285	-0.033067	3.172145
197.940931	3007.023413	1.366290	-0.033168	3.177292
198.751537	3018.039761	1.371295	-0.033323	3.182466
199.176423	3029.095126	1.376299	-0.033405	3.187597
199.504073	3040.095397	1.381304	-0.033470	3.192681
199.739079	3051.147257	1.386309	-0.033516	3.197769
200.096356	3062.115856	1.391314	-0.033586	3.202826
200.393199	3073.156659	1.396318	-0.033645	3.207901
200.712971	3084.177056	1.401323	-0.033707	3.212961
201.234087	3095.162463	1.406328	-0.033808	3.218024
201.923408	3106.155689	1.411332	-0.033940	3.223104
202.336568	3117.241116	1.416337	-0.034020	3.228181
202.711376	3128.213223	1.421342	-0.034093	3.233195
203.119937	3139.267030	1.426347	-0.034173	3.238241
203.301072	3150.272989	1.431351	-0.034209	3.243229
203.695590	3161.290963	1.436356	-0.034286	3.248242
203.984050	3172.291489	1.441361	-0.034343	3.253226
204.264574	3183.315628	1.446366	-0.034398	3.258211
204.686567	3194.337322	1.451370	-0.034480	3.263206
204.879729	3205.380392	1.456375	-0.034519	3.268174
205.106047	3216.366661	1.461380	-0.034564	3.273112
205.437361	3227.397880	1.466384	-0.034629	3.278077
206.087750	3238.372646	1.471389	-0.034754	3.283049
206.523098	3249.418980	1.476394	-0.034838	3.288019
207.045330	3260.435217	1.481399	-0.034939	3.292978
207.263663	3271.464163	1.486403	-0.034983	3.297897
207.586548	3282.460329	1.491408	-0.035046	3.302807
207.985201	3293.516676	1.496413	-0.035124	3.307746
208.439281	3304.484359	1.501417	-0.035212	3.312646
208.735664	3315.528295	1.506422	-0.035270	3.317551
209.058297	3326.528216	1.511427	-0.035333	3.322434
209.493272	3337.571866	1.516432	-0.035418	3.327342
209.955643	3348.530554	1.521436	-0.035507	3.332210
210.704625	3359.575260	1.526441	-0.035650	3.337143
210.925505	3370.595311	1.531446	-0.035695	3.341992
211.429565	3381.640494	1.536451	-0.035792	3.346881
211.682174	3392.631295	1.541455	-0.035842	3.351707
212.060598	3403.670229	1.546460	-0.035916	3.356563
212.569455	3414.656584	1.551465	-0.036014	3.361405
212.830778	3425.702822	1.556469	-0.036066	3.366236
213.348612	3436.673140	1.561474	-0.036166	3.371058
213.691814	3447.738128	1.566479	-0.036233	3.375893
213.982885	3458.729885	1.571484	-0.036290	3.380682
214.525124	3469.744018	1.576488	-0.036394	3.385505
214.684563	3480.771117	1.581493	-0.036427	3.390281
215.199994	3491.798812	1.586498	-0.036527	3.395092
215.539512	3502.789951	1.591503	-0.036593	3.399860
215.722899	3513.852654	1.596507	-0.036630	3.404634
216.120534	3524.823435	1.601512	-0.036707	3.409386
216.746451	3535.833328	1.606517	-0.036828	3.414176
217.235591	3546.867276	1.611521	-0.036922	3.418953
217.551917	3557.879424	1.616526	-0.036984	3.423693
217.832371	3568.908278	1.621531	-0.037040	3.428430
218.052306	3579.905568	1.626536	-0.037084	3.433140
218.411864	3590.928083	1.631540	-0.037154	3.437870
219.034322	3601.939917	1.636545	-0.037273	3.442620
219.778621	3612.928076	1.641550	-0.037416	3.447367
220.112113	3624.012765	1.646555	-0.037481	3.452100
220.554662	3634.981052	1.651559	-0.037567	3.456791
220.976080	3646.014103	1.656564	-0.037649	3.461500
221.517492	3657.014824	1.661569	-0.037753	3.466203
221.997239	3668.045684	1.666573	-0.037846	3.470904
222.155069	3679.059830	1.671578	-0.037878	3.475555
222.543160	3690.092053	1.676583	-0.037954	3.480234
222.820864	3701.096687	1.681588	-0.038008	3.484883
223.194581	3712.117645	1.686592	-0.038081	3.489543
223.581731	3723.114179	1.691597	-0.038157	3.494188
224.037873	3734.153265	1.696602	-0.038245	3.498852
224.411616	3745.154323	1.701606	-0.038318	3.503485
224.599000	3756.192488	1.706611	-0.038356	3.508105
224.856430	3767.184314	1.711616	-0.038407	3.512709
225.288593	3778.221551	1.716621	-0.038491	3.517345
225.767441	3789.184321	1.721625	-0.038583	3.521949
226.337148	3800.256356	1.726630	-0.038693	3.526602
226.725102	3811.254614	1.731635	-0.038768	3.531198
227.016718	3822.276217	1.736640	-0.038826	3.535787
227.342330	3833.264642	1.741644	-0.038890	3.540360
227.722566	3844.309667	1.746649	-0.038964	3.544957
228.084793	3855.309748	1.751654	-0.039034	3.549527
228.494854	3866.350207	1.756658	-0.039114	3.554113
229.004982	3877.338850	1.761663	-0.039212	3.558683
229.591449	3888.358143	1.766668	-0.039325	3.563267
230.072241	3899.394591	1.771673	-0.039418	3.567841
230.579944	3910.368183	1.776677	-0.039516	3.572387
231.183995	3921.380120	1.781682	-0.039632	3.576952
231.674078	3932.438690	1.786687	-0.039727	3.581518
232.043233	3943.439113	1.791692	-0.039799	3.586042
232.352274	3954.475177	1.796696	-0.039860	3.590568
232.682840	3965.462842	1.801701	-0.039924	3.595070
233.034829	3976.508123	1.806706	-0.039993	3.599593
233.530709	3987.497754	1.811710	-0.040089	3.604102
233.861068	3998.563323	1.816715	-0.040154	3.608619
234.167148	4009.528242	1.821720	-0.040214	3.613087
234.446999	4020.571190	1.826725	-0.040269	3.617578
234.951915	4031.519723	1.831729	-0.040366	3.622049
235.446051	4042.609133	1.836734	-0.040462	3.626571
235.844970	4053.581974	1.841739	-0.040539	3.631029
236.063175	4064.638909	1.846744	-0.040583	3.635497
236.290333	4075.619352	1.851748	-0.040629	3.639929
236.563961	4086.668922	1.856753	-0.040683	3.644389
236.970427	4097.685614	1.861758	-0.040762	3.648843
237.332853	4108.751923	1.866762	-0.040832	3.653308
237.786904	4119.740786	1.871767	-0.040920	3.657746
238.204170	4130.748350	1.876772	-0.041001	3.662181
238.701116	4141.777759	1.881777	-0.041097	3.666629
239.079080	4152.780724	1.886781	-0.041171	3.671047
239.690083	4163.785075	1.891786	-0.041288	3.675486
240.148727	4174.839128	1.896791	-0.041377	3.679922
240.568767	4185.833504	1.901795	-0.041459	3.684326
240.842150	4196.871738	1.906800	-0.041513	3.688726
241.235964	4207.842301	1.911805	-0.041589	3.693107
241.684426	4218.889502	1.916810	-0.041676	3.697519
241.996921	4229.879549	1.921814	-0.041737	3.701888
242.383847	4240.927733	1.926819	-0.041813	3.706283
242.605002	4251.926022	1.931824	-0.041857	3.710636
242.949076	4262.961201	1.936829	-0.041924	3.715011
243.340359	4273.938633	1.941833	-0.042000	3.719363
243.782353	4285.002156	1.946838	-0.042086	3.723748
243.997609	4295.978984	1.951843	-0.042129	3.728071
244.470841	4307.030740	1.956847	-0.042221	3.732445
244.738525	4318.013761	1.961852	-0.042274	3.736766
245.083362	4329.041883	1.966857	-0.042341	3.741107
