Wed Nov 23 19:06:18 2022

Number of Points = 2200
Depth (nm)	Load (µN)	Time (s)	Depth (V)	Load (V)
0.000000	2.072095	0.000000	0.079310	0.811234
0.426843	7.180324	0.005005	0.079229	0.820817
0.754834	15.607352	0.010009	0.079165	0.836135
1.211062	25.833149	0.015014	0.079077	0.854392
1.737077	36.740537	0.020019	0.078976	0.873469
2.243199	47.888766	0.025024	0.078878	0.892527
2.711350	59.106888	0.030028	0.078788	0.911276
3.187505	70.327099	0.035033	0.078695	0.929655
3.517275	81.583662	0.040038	0.078631	0.947649
3.739413	92.821825	0.045043	0.078586	0.965218
3.992370	104.031673	0.050047	0.078536	0.982447
4.121170	115.236274	0.055052	0.078509	0.999302
6.153103	125.809716	0.060057	0.078125	1.015985
10.519156	136.594335	0.065061	0.077303	1.033940
11.697902	148.277313	0.070066	0.077079	1.051191
12.649923	159.626696	0.075071	0.076898	1.067581
13.646016	170.813499	0.080076	0.076708	1.083523
14.719173	181.935407	0.085080	0.076504	1.099184
15.573726	193.130855	0.090085	0.076341	1.114614
16.618792	204.224209	0.095090	0.076142	1.129791
17.741087	215.343410	0.100094	0.075929	1.144836
18.773640	226.442676	0.105099	0.075732	1.159618
20.299152	237.483810	0.110104	0.075443	1.174368
21.431160	248.709616	0.115109	0.075228	1.188984
22.335304	259.834816	0.120113	0.075056	1.203195
23.508409	270.906223	0.125118	0.074833	1.217294
24.342954	282.055002	0.130123	0.074673	1.231174
25.406063	293.166363	0.135128	0.074471	1.244954
26.488045	304.220727	0.140132	0.074265	1.258524
27.546878	315.322237	0.145137	0.074064	1.271993
28.689761	326.403928	0.150142	0.073847	1.285333
29.365345	337.641228	0.155146	0.073717	1.298518
29.851604	348.750490	0.160151	0.073623	1.311347
30.902633	359.718000	0.165156	0.073423	1.324123
31.842451	370.779576	0.170161	0.073244	1.336836
32.677636	381.915771	0.175165	0.073085	1.349469
34.025851	392.874658	0.180170	0.072829	1.361994
34.543829	404.100662	0.185175	0.072729	1.374367
35.629353	415.090400	0.190180	0.072523	1.386596
36.565596	426.182561	0.195184	0.072344	1.398770
37.499691	437.247070	0.200189	0.072166	1.410807
38.415362	448.344767	0.205194	0.071992	1.422770
38.988658	459.455475	0.210198	0.071881	1.434519
40.175587	470.413897	0.215203	0.071656	1.446242
41.090042	481.546693	0.220208	0.071482	1.457948
41.820244	492.648133	0.225213	0.071342	1.469462
42.651524	503.650664	0.230217	0.071183	1.480823
43.602147	514.719435	0.235222	0.071002	1.492205
44.481966	525.799676	0.240227	0.070834	1.503487
45.295035	536.850737	0.245232	0.070679	1.514633
46.282199	547.889466	0.250236	0.070491	1.525745
47.193996	558.987491	0.255241	0.070317	1.536807
47.779916	570.066761	0.260246	0.070204	1.547660
48.752278	581.072911	0.265250	0.070019	1.558500
49.453869	592.165604	0.270255	0.069885	1.569254
50.229622	603.204879	0.275260	0.069737	1.579909
51.102901	614.255846	0.280265	0.069570	1.590536
51.678271	625.351660	0.285269	0.069459	1.601035
52.548657	636.349509	0.290274	0.069293	1.611472
53.028859	647.497636	0.295279	0.069200	1.621851
53.531415	658.511042	0.300283	0.069103	1.632049
54.512709	669.486191	0.305288	0.068916	1.642303
55.288129	680.561180	0.310293	0.068768	1.652516
55.917642	691.643997	0.315298	0.068647	1.662627
56.364509	702.718165	0.320302	0.068561	1.672612
57.200949	713.711494	0.325307	0.068401	1.682587
57.824991	724.763630	0.330312	0.068281	1.692489
58.599612	735.813328	0.335317	0.068133	1.702378
59.322042	746.854334	0.340321	0.067995	1.712185
59.932359	757.925416	0.345326	0.067878	1.721928
60.525456	768.963758	0.350331	0.067764	1.731582
61.345997	779.967585	0.355335	0.067607	1.741222
61.911017	791.045649	0.360340	0.067498	1.750794
62.737459	802.049750	0.365345	0.067340	1.760330
63.432943	813.140203	0.370350	0.067207	1.769848
63.978236	824.195313	0.375354	0.067102	1.779241
64.601781	835.171027	0.380359	0.066982	1.788541
65.636323	846.201160	0.385364	0.066785	1.797957
66.405999	857.274700	0.390369	0.066638	1.807282
67.160446	868.325079	0.395373	0.066494	1.816536
67.693563	879.366467	0.400378	0.066391	1.825673
68.187927	890.440965	0.405383	0.066296	1.834779
68.812232	901.431637	0.410387	0.066176	1.843810
69.507657	912.488554	0.415392	0.066043	1.852869
69.976858	923.560867	0.420397	0.065952	1.861833
70.756413	934.536151	0.425402	0.065803	1.870763
71.436795	945.585653	0.430406	0.065672	1.879681
72.024134	956.653421	0.435411	0.065560	1.888546
72.734818	967.651645	0.440416	0.065423	1.897348
73.377029	978.726208	0.445421	0.065300	1.906151
73.848497	989.735882	0.450425	0.065209	1.914816
74.427687	1000.812176	0.455430	0.065098	1.923522
75.041603	1011.795383	0.460435	0.064980	1.932127
75.719670	1022.865763	0.465439	0.064850	1.940776
76.179837	1033.889213	0.470444	0.064761	1.949294
76.788941	1044.933015	0.475449	0.064644	1.957829
77.321873	1055.977080	0.480454	0.064541	1.966307
77.923891	1066.993233	0.485458	0.064425	1.974746
78.396903	1078.034877	0.490463	0.064334	1.983134
79.139155	1089.046668	0.495468	0.064192	1.991533
79.811320	1100.077583	0.500472	0.064063	1.999893
80.624060	1111.103180	0.505477	0.063908	2.008250
81.032710	1122.198027	0.510482	0.063828	2.016521
81.604561	1133.182428	0.515487	0.063718	2.024718
82.179824	1144.220772	0.520491	0.063607	2.032921
82.817913	1155.266528	0.525496	0.063485	2.041113
83.317958	1166.291090	0.530501	0.063388	2.049222
83.929590	1177.330742	0.535506	0.063271	2.057337
84.245737	1188.370185	0.540510	0.063209	2.065347
84.856500	1199.378271	0.545515	0.063092	2.073376
85.214488	1210.428740	0.550520	0.063022	2.081342
85.953888	1221.435941	0.555524	0.062880	2.089340
86.411235	1232.488030	0.560529	0.062792	2.097270
87.017522	1243.499853	0.565534	0.062675	2.105178
87.733749	1254.493604	0.570539	0.062538	2.113069
88.324885	1265.561033	0.575543	0.062424	2.120953
88.783660	1276.595108	0.580548	0.062336	2.128752
89.234356	1287.643999	0.585553	0.062248	2.136532
89.536872	1298.670232	0.590558	0.062189	2.144232
90.111220	1309.672967	0.595562	0.062078	2.151952
90.652154	1320.721015	0.600567	0.061974	2.159668
91.341579	1331.694590	0.605572	0.061842	2.167339
91.970076	1342.779150	0.610576	0.061721	2.175045
92.368873	1353.795305	0.615581	0.061644	2.182624
92.962196	1364.820266	0.620586	0.061530	2.190227
93.440446	1375.852125	0.625591	0.061437	2.197782
93.873946	1386.890488	0.630595	0.061353	2.205305
94.274319	1397.933710	0.635600	0.061275	2.212798
94.802436	1408.902990	0.640605	0.061173	2.220245
95.528929	1419.938821	0.645610	0.061034	2.227756
96.109933	1430.980581	0.650614	0.060923	2.235212
96.814467	1441.989864	0.655619	0.060788	2.242650
97.265778	1453.026836	0.660624	0.060700	2.250025
97.914368	1464.093629	0.665628	0.060576	2.257438
98.419288	1475.068442	0.670633	0.060478	2.264736
98.840724	1486.147245	0.675638	0.060397	2.272059
99.228071	1497.152090	0.680643	0.060321	2.279304
99.855121	1508.131732	0.685647	0.060201	2.286560
100.269449	1519.218625	0.690652	0.060120	2.293817
100.812395	1530.199893	0.695657	0.060016	2.301011
101.354527	1541.245903	0.700661	0.059911	2.308223
101.746935	1552.297191	0.705666	0.059835	2.315384
102.113233	1563.294823	0.710671	0.059763	2.322483
103.028776	1574.293067	0.715676	0.059589	2.329677
103.367884	1585.367877	0.720680	0.059523	2.336776
103.828872	1596.380091	0.725685	0.059433	2.343839
104.005886	1607.415658	0.730690	0.059397	2.350835
104.552042	1618.407744	0.735695	0.059292	2.357861
105.033872	1629.465026	0.740699	0.059199	2.364893
105.545306	1640.467908	0.745704	0.059100	2.371876
105.909426	1651.501328	0.750709	0.059029	2.378827
106.502842	1662.495603	0.755713	0.058915	2.385781
107.195481	1673.535038	0.760718	0.058783	2.392762
107.478021	1684.588470	0.765723	0.058727	2.399648
107.905167	1695.595730	0.770728	0.058644	2.406515
108.448683	1706.617642	0.775732	0.058539	2.413395
108.815288	1717.639961	0.780737	0.058468	2.420219
109.144158	1728.691009	0.785742	0.058403	2.427035
109.507291	1739.703598	0.790747	0.058332	2.433814
109.859318	1750.700650	0.795751	0.058264	2.440563
110.362488	1761.721447	0.800756	0.058166	2.447338
111.090957	1772.756931	0.805761	0.058027	2.454147
111.413388	1783.762681	0.810765	0.057964	2.460839
112.077396	1794.788918	0.815770	0.057836	2.467592
112.470750	1805.852073	0.820775	0.057760	2.474296
112.856830	1816.851904	0.825780	0.057685	2.480942
113.194468	1827.878193	0.830784	0.057619	2.487577
113.771112	1838.913873	0.835789	0.057508	2.494246
114.090791	1849.916959	0.840794	0.057445	2.500828
114.605386	1860.928665	0.845799	0.057346	2.507435
114.929182	1871.983136	0.850803	0.057282	2.514013
115.435718	1882.974716	0.855808	0.057184	2.520572
115.763639	1894.016305	0.860813	0.057120	2.527109
116.260001	1905.054528	0.865817	0.057024	2.533659
116.486622	1916.047848	0.870822	0.056979	2.540115
117.151713	1927.061049	0.875827	0.056852	2.546648
117.450337	1938.120730	0.880832	0.056793	2.553123
118.082650	1949.091378	0.885836	0.056671	2.559592
118.376593	1960.151725	0.890841	0.056614	2.566033
119.031905	1971.167960	0.895846	0.056488	2.572500
119.174253	1982.272043	0.900850	0.056458	2.578906
119.494249	1993.212297	0.905855	0.056396	2.585235
120.052408	2004.209264	0.910860	0.056288	2.591624
120.464062	2015.253827	0.915865	0.056208	2.597998
120.950652	2026.250646	0.920869	0.056114	2.604343
121.460545	2037.298873	0.925874	0.056016	2.610706
121.731476	2048.304205	0.930879	0.055962	2.616985
122.020965	2059.331507	0.935884	0.055905	2.623265
122.511634	2070.310159	0.940888	0.055810	2.629538
123.208189	2081.337744	0.945893	0.055677	2.635861
123.468206	2092.398399	0.950898	0.055625	2.642109
123.707792	2103.416955	0.955902	0.055578	2.648316
124.093882	2114.409647	0.960907	0.055503	2.654519
124.674997	2125.425950	0.965912	0.055391	2.660755
125.166128	2136.448559	0.970917	0.055296	2.666964
125.626138	2147.492742	0.975921	0.055207	2.673165
125.918610	2158.485813	0.980926	0.055149	2.679294
126.467758	2169.515330	0.985931	0.055043	2.685473
126.903520	2180.553550	0.990936	0.054959	2.691624
127.457388	2191.532916	0.995940	0.054852	2.697748
127.785962	2202.591596	1.000945	0.054788	2.703863
128.149950	2213.606783	1.005950	0.054717	2.709946
128.528105	2224.623231	1.010954	0.054643	2.716019
128.933790	2235.659581	1.015959	0.054564	2.722093
129.186776	2246.670258	1.020964	0.054514	2.728114
129.699987	2257.685883	1.025969	0.054415	2.734168
129.817846	2268.730805	1.030973	0.054390	2.740158
130.246346	2279.716222	1.035978	0.054307	2.746155
130.497084	2290.775690	1.040983	0.054257	2.752149
130.938795	2301.757703	1.045988	0.054172	2.758120
131.171552	2312.790558	1.050992	0.054125	2.764070
131.658129	2323.796557	1.055997	0.054031	2.770036
132.167324	2334.802235	1.061002	0.053933	2.775992
132.626495	2345.851957	1.066006	0.053844	2.781950
132.828468	2356.866913	1.071011	0.053804	2.787834
133.268938	2367.863916	1.076016	0.053718	2.793736
133.715709	2378.912301	1.081021	0.053632	2.799654
134.188021	2389.913297	1.086025	0.053540	2.805538
134.303741	2400.982602	1.091030	0.053516	2.811387
134.715736	2411.966246	1.096035	0.053436	2.817227
135.161427	2422.966286	1.101039	0.053349	2.823069
135.549433	2433.984297	1.106044	0.053274	2.828899
135.965451	2445.031777	1.111049	0.053193	2.834737
136.364687	2456.050188	1.116054	0.053115	2.840545
136.488099	2467.082772	1.121058	0.053090	2.846304
136.817848	2478.098064	1.126063	0.053025	2.852075
137.176527	2489.078261	1.131068	0.052955	2.857821
137.651691	2500.104233	1.136073	0.052863	2.863598
138.195672	2511.128166	1.141077	0.052758	2.869373
138.867226	2522.129548	1.146082	0.052630	2.875144
139.184104	2533.186507	1.151087	0.052567	2.880877
139.518878	2544.216490	1.156091	0.052502	2.886586
139.891186	2555.230304	1.161096	0.052429	2.892283
140.026687	2566.243612	1.166101	0.052401	2.897930
140.399846	2577.243606	1.171106	0.052328	2.903597
140.881456	2588.270343	1.176110	0.052235	2.909283
141.087073	2599.302267	1.181115	0.052194	2.914917
141.500793	2610.298234	1.186120	0.052114	2.920555
141.902031	2621.335813	1.191125	0.052036	2.926201
142.284538	2632.344582	1.196129	0.051961	2.931818
142.706181	2643.344979	1.201134	0.051879	2.937427
143.255386	2654.370231	1.206139	0.051773	2.943056
143.590021	2665.406678	1.211143	0.051708	2.948648
144.028611	2676.410359	1.216148	0.051623	2.954228
144.432462	2687.437797	1.221153	0.051544	2.959804
144.635269	2698.471219	1.226158	0.051504	2.965342
145.114579	2709.468521	1.231162	0.051411	2.970894
145.583903	2720.506939	1.236167	0.051320	2.976454
145.952413	2731.503282	1.241172	0.051248	2.981967
146.394679	2742.518249	1.246177	0.051163	2.987491
146.939811	2753.537526	1.251181	0.051058	2.993021
147.342257	2764.566479	1.256186	0.050979	2.998525
147.556442	2775.605763	1.261191	0.050936	3.003996
147.874404	2786.609331	1.266195	0.050874	3.009454
148.432449	2797.595259	1.271200	0.050767	3.014930
148.866512	2808.640390	1.276205	0.050682	3.020406
149.341308	2819.649719	1.281210	0.050591	3.025860
149.744796	2830.676553	1.286214	0.050512	3.031303
149.858014	2841.711417	1.291219	0.050488	3.036697
150.219381	2852.703805	1.296224	0.050418	3.042097
150.751131	2863.737140	1.301228	0.050315	3.047532
151.290562	2874.722711	1.306233	0.050211	3.052936
151.571171	2885.781860	1.311238	0.050156	3.058327
151.759599	2896.797165	1.316243	0.050118	3.063675
152.075305	2907.815963	1.321247	0.050056	3.069033
152.609482	2918.783364	1.326252	0.049953	3.074389
152.920852	2929.857675	1.331257	0.049892	3.079754
153.266694	2940.833235	1.336262	0.049824	3.085068
153.514739	2951.903516	1.341266	0.049775	3.090404
154.053040	2962.878196	1.346271	0.049671	3.095726
154.331113	2973.908337	1.351276	0.049616	3.101028
154.904434	2984.901589	1.356280	0.049506	3.106346
155.312165	2995.944303	1.361285	0.049427	3.111654
155.700428	3006.944939	1.366290	0.049351	3.116930
156.015312	3018.015346	1.371295	0.049289	3.122221
156.544806	3028.966172	1.376299	0.049187	3.127475
157.123572	3040.009434	1.381304	0.049076	3.132771
157.695073	3051.022457	1.386309	0.048966	3.138043
158.013267	3062.047577	1.391314	0.048903	3.143277
158.273664	3073.076504	1.396318	0.048852	3.148495
158.603182	3084.089697	1.401323	0.048787	3.153707
158.841689	3095.098823	1.406328	0.048740	3.158896
159.345089	3106.102700	1.411332	0.048643	3.164110
159.858444	3117.128368	1.416337	0.048543	3.169327
160.142637	3128.170134	1.421342	0.048487	3.174511
160.548912	3139.173711	1.426347	0.048408	3.179686
160.794444	3150.198233	1.431351	0.048360	3.184840
161.179757	3161.207462	1.436356	0.048285	3.189997
161.641015	3172.212081	1.441361	0.048195	3.195155
162.140279	3183.257008	1.446366	0.048099	3.200327
162.512540	3194.248302	1.451370	0.048026	3.205449
162.981278	3205.277647	1.456375	0.047936	3.210594
163.183430	3216.295328	1.461380	0.047895	3.215689
163.799048	3227.269154	1.466384	0.047777	3.220811
164.108875	3238.330706	1.471389	0.047716	3.225924
164.655824	3249.331861	1.476394	0.047611	3.231033
164.985595	3260.370117	1.481399	0.047546	3.236122
165.343004	3271.366745	1.486403	0.047476	3.241187
165.853629	3282.392220	1.491408	0.047378	3.246278
166.067940	3293.415287	1.496413	0.047335	3.251321
166.306537	3304.454875	1.501417	0.047287	3.256366
166.708757	3315.418533	1.506422	0.047209	3.261391
167.240145	3326.470669	1.511427	0.047107	3.266464
167.813433	3337.469049	1.516432	0.046996	3.271511
168.115053	3348.484811	1.521436	0.046937	3.276522
168.496104	3359.512977	1.526441	0.046863	3.281542
168.800553	3370.551214	1.531446	0.046803	3.286548
169.082469	3381.545593	1.536451	0.046747	3.291525
169.646706	3392.547854	1.541455	0.046639	3.296533
170.003691	3403.589686	1.546460	0.046569	3.301525
170.393905	3414.588805	1.551465	0.046493	3.306494
170.874182	3425.621848	1.556469	0.046400	3.311482
171.301937	3436.620413	1.561474	0.046317	3.316441
171.588735	3447.658454	1.566479	0.046261	3.321392
171.883507	3458.682170	1.571484	0.046203	3.326330
172.290934	3469.659585	1.576488	0.046123	3.331254
172.715631	3480.690333	1.581493	0.046041	3.336197
173.056105	3491.715155	1.586498	0.045974	3.341119
173.641548	3502.722528	1.591503	0.045862	3.346057
173.889597	3513.750179	1.596507	0.045812	3.350954
174.339795	3524.763293	1.601512	0.045725	3.355863
174.784492	3535.788139	1.606517	0.045639	3.360769
175.015068	3546.818123	1.611521	0.045593	3.365643
175.399258	3557.811767	1.616526	0.045518	3.370513
175.639598	3568.830814	1.621531	0.045470	3.375370
176.149733	3579.814358	1.626536	0.045372	3.380237
176.456880	3590.896310	1.631540	0.045312	3.385115
176.838375	3601.864081	1.636545	0.045237	3.389946
177.082321	3612.928049	1.641550	0.045189	3.394794
177.299921	3623.921349	1.646555	0.045145	3.399602
177.714147	3634.927903	1.651559	0.045065	3.404432
178.145194	3645.934261	1.656564	0.044981	3.409258
178.450140	3656.970933	1.661569	0.044921	3.414074
178.901812	3667.969537	1.666573	0.044834	3.418885
179.170886	3679.003138	1.671578	0.044781	3.423681
179.580391	3690.001773	1.676583	0.044701	3.428473
180.054233	3701.025138	1.681588	0.044609	3.433277
180.391989	3712.040460	1.686592	0.044543	3.438054
180.729178	3723.072312	1.691597	0.044477	3.442831
181.060281	3734.086527	1.696602	0.044412	3.447594
181.512436	3745.073993	1.701606	0.044325	3.452352
181.986886	3756.108872	1.706611	0.044233	3.457127
182.231344	3767.139648	1.711616	0.044185	3.461866
182.711303	3778.117793	1.716621	0.044092	3.466604
182.900948	3789.176116	1.721625	0.044053	3.471335
183.255089	3800.166896	1.726630	0.043984	3.476051
183.468373	3811.199955	1.731635	0.043941	3.480761
183.871071	3822.215208	1.736640	0.043863	3.485480
184.061688	3833.226599	1.741644	0.043825	3.490166
184.331760	3844.252576	1.746649	0.043771	3.494861
184.588767	3855.249142	1.751654	0.043720	3.499535
185.101888	3866.254921	1.756658	0.043621	3.504237
185.332508	3877.311007	1.761663	0.043575	3.508921
185.818284	3888.293757	1.766668	0.043481	3.513597
186.339587	3899.344355	1.771673	0.043381	3.518299
186.779666	3910.302823	1.776677	0.043296	3.522947
187.283898	3921.366057	1.781682	0.043198	3.527640
187.416800	3932.378356	1.786687	0.043171	3.532263
187.851551	3943.394129	1.791692	0.043086	3.536916
188.196187	3954.377433	1.796696	0.043019	3.541539
188.568784	3965.448771	1.801701	0.042946	3.546195
188.873850	3976.414466	1.806706	0.042886	3.550794
189.189676	3987.460133	1.811710	0.042824	3.555421
189.723674	3998.426081	1.816715	0.042721	3.560034
190.278580	4009.504324	1.821720	0.042615	3.564689
190.609568	4020.467889	1.826725	0.042550	3.569265
190.931755	4031.519973	1.831729	0.042487	3.573872
191.191698	4042.538330	1.836734	0.042435	3.578451
191.420225	4053.565106	1.841739	0.042389	3.583024
192.012961	4064.542378	1.846744	0.042275	3.587612
192.356818	4075.584386	1.851748	0.042208	3.592193
192.794726	4086.572228	1.856753	0.042123	3.596755
193.135373	4097.643126	1.861758	0.042057	3.601336
193.379722	4108.677222	1.866762	0.042008	3.605884
193.778500	4119.687986	1.871767	0.041931	3.610435
194.123664	4130.685297	1.876772	0.041863	3.614968
194.663282	4141.706040	1.881777	0.041759	3.619526
195.025062	4152.739546	1.886781	0.041688	3.624064
195.351820	4163.755880	1.891786	0.041624	3.628586
195.639735	4174.775079	1.896791	0.041568	3.633099
195.948310	4185.799672	1.901795	0.041507	3.637610
196.345668	4196.783860	1.906800	0.041430	3.642109
196.748869	4207.831322	1.911805	0.041351	3.646629
197.110428	4218.795815	1.916810	0.041281	3.651105
197.460561	4229.848989	1.921814	0.041212	3.655610
197.810437	4240.861238	1.926819	0.041144	3.660093
198.186566	4251.875721	1.931824	0.041071	3.664574
198.468577	4262.897044	1.936829	0.041015	3.669042
198.803789	4273.909492	1.941833	0.040949	3.673507
199.133984	4284.922183	1.946838	0.040885	3.677966
199.521671	4295.945094	1.951843	0.040809	3.682429
200.078524	4306.947424	1.956847	0.040702	3.686897
200.712689	4317.952677	1.961852	0.040580	3.691368
200.872758	4328.984349	1.966857	0.040548	3.695795
201.159206	4339.992390	1.971862	0.040491	3.700220
201.547296	4351.005296	1.976866	0.040416	3.704652
201.871389	4362.031984	1.981871	0.040352	3.709078
202.343410	4373.036666	1.986876	0.040261	3.713505
202.656581	4384.085300	1.991881	0.040199	3.717928
203.073632	4395.058920	1.996885	0.040118	3.722326
203.427089	4406.115229	2.001890	0.040049	3.726745
203.514224	4417.097165	2.006895	0.040030	3.731102
203.885816	4428.121661	2.011899	0.039958	3.735500
