Wed Nov 23 17:50:12 2022

Number of Points = 2200
Depth (nm)	Load (µN)	Time (s)	Depth (V)	Load (V)
-1.641612	0.698851	0.000000	0.014479	1.016699
0.000000	7.432725	0.005005	0.014169	1.027269
1.275543	16.793367	0.010009	0.013927	1.041258
2.644854	27.486661	0.015014	0.013668	1.056965
3.614087	38.608590	0.020019	0.013483	1.072826
4.574431	49.748408	0.025024	0.013300	1.088476
5.409037	60.899941	0.030028	0.013141	1.103856
6.332805	72.028059	0.035033	0.012965	1.119037
7.081440	83.197848	0.040038	0.012821	1.133985
7.663069	94.376626	0.045043	0.012709	1.148670
8.124372	105.499755	0.050047	0.012620	1.163043
8.892518	116.570689	0.055052	0.012473	1.177316
9.295375	127.731082	0.060057	0.012395	1.191363
10.043949	138.794640	0.065061	0.012252	1.205282
10.542225	149.948227	0.070066	0.012155	1.219039
11.022827	161.049728	0.075071	0.012063	1.232573
11.557795	172.136815	0.080076	0.011959	1.245966
12.103413	183.230476	0.085080	0.011854	1.259228
12.584982	194.313480	0.090085	0.011761	1.272312
13.157846	205.421471	0.095090	0.011651	1.285330
13.524477	216.551603	0.100094	0.011579	1.298156
13.839699	227.676186	0.105099	0.011518	1.310830
14.212283	238.693430	0.110104	0.011445	1.323286
14.862111	249.718463	0.115109	0.011320	1.335745
15.366987	260.825316	0.120113	0.011223	1.348120
15.623905	271.959277	0.125118	0.011172	1.360315
15.917544	283.014106	0.130123	0.011114	1.372330
16.480537	294.061839	0.135128	0.011006	1.384337
16.763381	305.141052	0.140132	0.010950	1.396167
17.293051	316.204732	0.145137	0.010848	1.407974
17.653738	327.268063	0.150142	0.010777	1.419619
18.320791	338.311738	0.155146	0.010649	1.431263
24.046535	347.633297	0.160151	0.009573	1.442918
42.181554	357.857639	0.165156	0.006167	1.459904
42.771094	371.206359	0.170161	0.006053	1.473494
43.593084	382.522873	0.175165	0.005896	1.485032
44.105333	393.672369	0.180170	0.005797	1.496208
44.797712	404.709530	0.185175	0.005665	1.507254
45.408356	415.766744	0.190180	0.005547	1.518210
47.000312	426.658628	0.195184	0.005246	1.529267
47.735323	437.863842	0.200189	0.005105	1.540249
48.880008	448.843498	0.205194	0.004888	1.551079
49.740096	459.978461	0.210198	0.004724	1.561883
50.362086	471.051678	0.215203	0.004604	1.572475
51.183535	482.046918	0.220208	0.004447	1.582990
52.315900	493.078790	0.225213	0.004232	1.593571
53.134495	504.185644	0.230217	0.004076	1.604048
54.134386	515.193449	0.235222	0.003885	1.614425
54.705280	526.334219	0.240227	0.003776	1.624717
55.758112	537.276873	0.245232	0.003575	1.634921
56.439330	548.399741	0.250236	0.003445	1.645103
57.408836	559.393528	0.255241	0.003260	1.655199
58.263681	570.461167	0.260246	0.003097	1.665262
59.128426	581.490062	0.265250	0.002932	1.675234
60.015051	592.553960	0.270255	0.002763	1.685183
60.819742	603.611037	0.275260	0.002609	1.695043
61.625848	614.664149	0.280265	0.002455	1.704842
62.665601	625.663484	0.285269	0.002257	1.714609
63.199645	636.785762	0.290274	0.002154	1.724273
63.921148	647.791146	0.295279	0.002016	1.733840
64.554596	658.876239	0.300283	0.001895	1.743395
65.152735	669.886168	0.305288	0.001780	1.752824
66.222236	680.883097	0.310293	0.001576	1.762330
67.025605	691.963522	0.315298	0.001423	1.771776
67.829565	702.996116	0.320302	0.001269	1.781133
68.676131	714.015774	0.325307	0.001108	1.790441
69.126868	725.132314	0.330312	0.001020	1.799667
70.269133	736.059127	0.335317	0.000803	1.808889
71.052766	747.167873	0.340321	0.000653	1.818108
71.714576	758.219530	0.345326	0.000527	1.827201
72.094867	769.303804	0.350331	0.000452	1.836195
72.945726	780.259848	0.355335	0.000290	1.845175
73.751487	791.295908	0.360340	0.000136	1.854161
74.589673	802.362049	0.365345	-0.000024	1.863136
75.340780	813.401873	0.370350	-0.000168	1.872024
76.189307	824.415391	0.375354	-0.000329	1.880875
76.641674	835.495945	0.380359	-0.000417	1.889629
77.622541	846.472133	0.385364	-0.000604	1.898404
78.709119	857.466611	0.390369	-0.000810	1.907180
79.734330	868.561770	0.395373	-0.001006	1.915977
80.380364	879.612653	0.400378	-0.001130	1.924599
81.082896	890.651380	0.405383	-0.001264	1.933188
81.634757	901.703574	0.410387	-0.001370	1.941709
82.373983	912.706266	0.415392	-0.001512	1.950204
83.065787	923.743292	0.420397	-0.001644	1.958676
83.837679	934.782892	0.425402	-0.001792	1.967133
84.343833	945.850210	0.430406	-0.001890	1.975506
85.311463	956.780629	0.435411	-0.002074	1.983860
85.997503	967.898582	0.440416	-0.002205	1.992246
86.642313	978.938219	0.445421	-0.002329	2.000528
87.434008	989.924424	0.450425	-0.002480	2.008773
88.104818	1001.009264	0.455430	-0.002609	2.017026
88.644006	1012.014059	0.460435	-0.002713	2.025155
89.216779	1023.082695	0.465439	-0.002823	2.033305
89.886915	1034.064750	0.470444	-0.002952	2.041384
90.882296	1045.077604	0.475449	-0.003141	2.049532
91.550687	1056.170571	0.480454	-0.003269	2.057626
92.152339	1067.188167	0.485458	-0.003385	2.065617
92.699691	1078.216365	0.490463	-0.003490	2.073572
93.027088	1089.305794	0.495468	-0.003555	2.081487
93.933314	1100.219874	0.500472	-0.003727	2.089386
94.933684	1111.285637	0.505477	-0.003918	2.097385
95.451289	1122.339071	0.510482	-0.004018	2.105229
96.154339	1133.369801	0.515487	-0.004152	2.113072
96.542240	1144.410428	0.520491	-0.004228	2.120819
97.589589	1155.373770	0.525496	-0.004427	2.128638
98.359227	1166.425057	0.530501	-0.004574	2.136424
99.102997	1177.488792	0.535506	-0.004716	2.144184
99.611767	1188.501082	0.540510	-0.004815	2.151826
100.449859	1199.525296	0.545515	-0.004975	2.159525
100.997080	1210.578870	0.550520	-0.005080	2.167149
101.604663	1221.613335	0.555524	-0.005197	2.174748
102.121974	1232.611216	0.560529	-0.005297	2.182274
102.836441	1243.650860	0.565534	-0.005433	2.189847
103.198635	1254.717690	0.570539	-0.005504	2.197333
103.828852	1265.710547	0.575543	-0.005625	2.204804
104.140437	1276.766258	0.580548	-0.005686	2.212219
104.863775	1287.742592	0.585553	-0.005825	2.219650
105.848643	1298.740367	0.590558	-0.006012	2.227127
106.463823	1309.819917	0.595562	-0.006130	2.234550
107.135495	1320.827800	0.600567	-0.006259	2.241915
107.945703	1331.850996	0.605572	-0.006414	2.249295
108.761006	1342.884154	0.610576	-0.006570	2.256659
109.308376	1353.943259	0.615581	-0.006675	2.263957
109.583057	1364.978191	0.620586	-0.006729	2.271157
110.038269	1375.993627	0.625591	-0.006817	2.278360
110.355271	1387.012536	0.630595	-0.006880	2.285513
111.234288	1397.998070	0.635600	-0.007047	2.292742
111.762276	1409.050593	0.640605	-0.007149	2.299916
112.656237	1420.032349	0.645610	-0.007320	2.307100
113.231332	1431.121668	0.650614	-0.007430	2.314263
113.810221	1442.108937	0.655619	-0.007542	2.321339
114.163097	1453.186667	0.660624	-0.007611	2.328404
114.801166	1464.189072	0.665628	-0.007733	2.335459
115.381645	1475.180566	0.670633	-0.007845	2.342474
116.061868	1486.221647	0.675638	-0.007975	2.349519
116.736311	1497.240449	0.680643	-0.008104	2.356528
117.224688	1508.289023	0.685647	-0.008199	2.363496
117.698338	1519.311780	0.690652	-0.008290	2.370425
118.740138	1530.264467	0.695657	-0.008488	2.377405
119.369232	1541.354634	0.700661	-0.008609	2.384366
119.837966	1552.377347	0.705666	-0.008700	2.391232
120.135653	1563.438269	0.710671	-0.008759	2.398068
120.608224	1574.431456	0.715676	-0.008850	2.404878
121.112789	1585.464496	0.720680	-0.008947	2.411698
121.776616	1596.452793	0.725685	-0.009075	2.418505
122.334730	1607.474193	0.730690	-0.009182	2.425290
122.895621	1618.536756	0.735695	-0.009290	2.432082
123.106642	1629.580370	0.740699	-0.009332	2.438775
123.412805	1640.586032	0.745704	-0.009393	2.445445
123.911021	1651.578719	0.750709	-0.009489	2.452127
124.650575	1662.596299	0.755713	-0.009630	2.458852
125.090607	1673.630347	0.760718	-0.009716	2.465511
125.755938	1684.658501	0.765723	-0.009843	2.472191
125.958952	1695.731457	0.770728	-0.009884	2.478790
126.400426	1706.697073	0.775732	-0.009970	2.485355
127.090669	1717.727314	0.780737	-0.010102	2.491987
127.778062	1728.738615	0.785742	-0.010233	2.498590
128.364228	1739.764387	0.790747	-0.010346	2.505165
128.708399	1750.811866	0.795751	-0.010414	2.511689
128.924678	1761.841039	0.800756	-0.010457	2.518161
129.813304	1772.802351	0.805761	-0.010626	2.524704
130.281247	1783.868065	0.810765	-0.010717	2.531211
130.867213	1794.878308	0.815770	-0.010829	2.537691
131.407834	1805.899676	0.820775	-0.010934	2.544152
131.911684	1816.937263	0.825780	-0.011031	2.550600
132.234765	1827.972499	0.830784	-0.011094	2.556996
132.846197	1838.973493	0.835789	-0.011212	2.563410
133.391705	1849.966393	0.840794	-0.011317	2.569790
133.872518	1861.099510	0.845799	-0.011410	2.576223
134.129475	1872.070491	0.850803	-0.011461	2.582507
134.432350	1883.070900	0.855808	-0.011520	2.588800
134.826663	1894.086852	0.860813	-0.011597	2.595103
135.704306	1905.051962	0.865817	-0.011764	2.601450
136.465838	1916.106941	0.870822	-0.011910	2.607811
137.009303	1927.152281	0.875827	-0.012015	2.614111
137.386058	1938.170883	0.880832	-0.012088	2.620351
137.726360	1949.193229	0.885836	-0.012155	2.626572
138.033612	1960.235615	0.890841	-0.012215	2.632783
138.464963	1971.247519	0.895846	-0.012299	2.638984
139.025895	1982.221546	0.900850	-0.012407	2.645173
139.641208	1993.293647	0.905855	-0.012525	2.651411
139.782734	2004.301895	0.910860	-0.012554	2.657516
140.517370	2015.298721	0.915865	-0.012695	2.663704
141.085600	2026.308378	0.920869	-0.012804	2.669855
141.688843	2037.361004	0.925874	-0.012920	2.676022
142.298616	2048.351033	0.930879	-0.013037	2.682142
142.521470	2059.411551	0.935884	-0.013082	2.688219
142.998020	2070.382177	0.940888	-0.013174	2.694277
143.515857	2081.409355	0.945893	-0.013274	2.700359
143.855508	2092.437613	0.950898	-0.013340	2.706397
144.486587	2103.460859	0.955902	-0.013461	2.712469
144.901389	2114.459647	0.960907	-0.013542	2.718477
145.453291	2125.500497	0.965912	-0.013648	2.724517
145.865119	2136.531519	0.970917	-0.013728	2.730515
146.480514	2147.516372	0.975921	-0.013846	2.736509
147.172850	2158.549843	0.980926	-0.013979	2.742529
147.543817	2169.585122	0.985931	-0.014051	2.748483
147.809773	2180.597918	0.990936	-0.014104	2.754394
148.569445	2191.589508	0.995940	-0.014249	2.760363
148.883678	2202.660322	1.000945	-0.014311	2.766288
149.481188	2213.644900	1.005950	-0.014426	2.772200
149.838289	2224.677844	1.010954	-0.014496	2.778086
150.246266	2235.692081	1.015959	-0.014575	2.783958
150.621489	2246.728999	1.020964	-0.014648	2.789824
151.081231	2257.729354	1.025969	-0.014737	2.795672
151.706402	2268.738855	1.030973	-0.014857	2.801540
152.319428	2279.785555	1.035978	-0.014975	2.807412
152.901255	2290.774738	1.040983	-0.015087	2.813237
153.459692	2301.807881	1.045988	-0.015194	2.819069
154.209748	2312.787117	1.050992	-0.015338	2.824892
155.213969	2323.823394	1.055997	-0.015529	2.830772
155.619825	2334.878600	1.061002	-0.015608	2.836555
156.172843	2345.900479	1.066006	-0.015714	2.842331
156.592348	2356.896268	1.071011	-0.015796	2.848061
156.976545	2367.943842	1.076016	-0.015871	2.853801
157.313999	2378.966997	1.081021	-0.015937	2.859509
157.987667	2389.932864	1.086025	-0.016066	2.865229
158.463074	2401.015475	1.091030	-0.016158	2.870966
158.826141	2412.019291	1.096035	-0.016228	2.876634
159.133227	2423.029886	1.101039	-0.016289	2.882285
159.604826	2434.039060	1.106044	-0.016380	2.887950
160.089276	2445.091133	1.111049	-0.016474	2.893627
160.565014	2456.076112	1.116054	-0.016566	2.899258
161.009982	2467.082518	1.121058	-0.016652	2.904884
161.701245	2478.125428	1.126063	-0.016784	2.910555
162.160261	2489.139823	1.131068	-0.016873	2.916165
162.778936	2500.141577	1.136073	-0.016992	2.921782
163.179467	2511.173705	1.141077	-0.017070	2.927370
163.775338	2522.178522	1.146082	-0.017184	2.932963
163.912046	2533.232646	1.151087	-0.017213	2.938501
164.290829	2544.240480	1.156091	-0.017287	2.944041
164.777799	2555.249208	1.161096	-0.017381	2.949588
165.330409	2566.265607	1.166101	-0.017487	2.955138
165.769695	2577.278394	1.171106	-0.017572	2.960659
166.068025	2588.344178	1.176110	-0.017631	2.966174
166.376904	2599.349819	1.181115	-0.017692	2.971651
166.763520	2610.347548	1.186120	-0.017767	2.977125
167.283942	2621.336998	1.191125	-0.017867	2.982606
167.948425	2632.367472	1.196129	-0.017995	2.988117
168.463103	2643.385108	1.201134	-0.018094	2.993589
168.969391	2654.436880	1.206139	-0.018192	2.999067
169.280732	2665.424004	1.211143	-0.018253	3.004475
169.766740	2676.487190	1.216148	-0.018347	3.009935
170.139264	2687.455994	1.221153	-0.018419	3.015323
170.600084	2698.506550	1.226158	-0.018509	3.020754
170.893235	2709.507793	1.231162	-0.018566	3.026127
171.582706	2720.525268	1.236167	-0.018699	3.031555
171.926776	2731.533233	1.241172	-0.018766	3.036919
172.209979	2742.587013	1.246177	-0.018822	3.042286
172.786683	2753.567812	1.251181	-0.018933	3.047652
173.251041	2764.587140	1.256186	-0.019022	3.053010
173.779237	2775.605362	1.261191	-0.019124	3.058367
174.290844	2786.630139	1.266195	-0.019223	3.063715
174.793300	2797.645412	1.271200	-0.019320	3.069048
175.203277	2808.680351	1.276205	-0.019400	3.074368
175.605738	2819.683255	1.281210	-0.019478	3.079662
176.198193	2830.695879	1.286214	-0.019592	3.084979
176.499367	2841.749230	1.291219	-0.019651	3.090264
176.741023	2852.745751	1.296224	-0.019699	3.095505
177.145736	2863.750632	1.301228	-0.019778	3.100764
177.594438	2874.774219	1.306233	-0.019865	3.106029
177.830030	2885.815559	1.311238	-0.019912	3.111264
178.427678	2896.784278	1.316243	-0.020027	3.116506
178.917283	2907.820569	1.321247	-0.020121	3.121755
179.423560	2918.870392	1.326252	-0.020219	3.127005
179.762914	2929.867543	1.331257	-0.020285	3.132198
180.136354	2940.886003	1.336262	-0.020358	3.137396
180.594982	2951.888762	1.341266	-0.020447	3.142591
181.095402	2962.929504	1.346271	-0.020543	3.147800
181.300484	2973.947845	1.351276	-0.020585	3.152950
181.630799	2984.978076	1.356280	-0.020649	3.158113
182.020302	2995.964227	1.361285	-0.020725	3.163256
182.556222	3006.990085	1.366290	-0.020828	3.168429
182.990978	3017.988260	1.371295	-0.020913	3.173566
183.663109	3029.020248	1.376299	-0.021042	3.178743
184.069590	3040.034909	1.381304	-0.021121	3.183867
184.505066	3051.068147	1.386309	-0.021205	3.188996
184.772783	3062.085268	1.391314	-0.021258	3.194086
185.202735	3073.103841	1.396318	-0.021341	3.199191
185.755629	3084.091826	1.401323	-0.021448	3.204289
186.375147	3095.129222	1.406328	-0.021567	3.209411
186.791540	3106.129226	1.411332	-0.021648	3.214480
187.295033	3117.171268	1.416337	-0.021745	3.219572
187.817816	3128.154233	1.421342	-0.021846	3.224632
188.313637	3139.208219	1.426347	-0.021942	3.229712
188.596618	3150.212501	1.431351	-0.021997	3.234734
188.999624	3161.240364	1.436356	-0.022076	3.239774
189.368520	3172.240276	1.441361	-0.022148	3.244789
189.777769	3183.275090	1.446366	-0.022227	3.249817
190.135899	3194.267135	1.451370	-0.022297	3.254812
190.678960	3205.309573	1.456375	-0.022402	3.259845
191.091714	3216.298368	1.461380	-0.022482	3.264830
191.585298	3227.353752	1.466384	-0.022577	3.269847
191.826515	3238.347957	1.471389	-0.022625	3.274797
192.046149	3249.386190	1.476394	-0.022669	3.279756
192.417440	3260.393156	1.481399	-0.022742	3.284712
192.781745	3271.414206	1.486403	-0.022813	3.289667
193.033773	3282.411858	1.491408	-0.022863	3.294589
193.690457	3293.422217	1.496413	-0.022989	3.299561
194.160425	3304.426119	1.501417	-0.023080	3.304499
194.582962	3315.478773	1.506422	-0.023162	3.309445
194.742492	3326.495786	1.511427	-0.023194	3.314335
195.314477	3337.496544	1.516432	-0.023304	3.319261
195.666317	3348.517010	1.521436	-0.023373	3.324162
196.160215	3359.550821	1.526441	-0.023468	3.329079
196.566480	3370.512433	1.531446	-0.023547	3.333946
196.987056	3381.602497	1.536451	-0.023629	3.338864
197.422875	3392.568105	1.541455	-0.023714	3.343721
197.947227	3403.602991	1.546460	-0.023815	3.348613
198.193435	3414.617671	1.551465	-0.023864	3.353455
198.790024	3425.630208	1.556469	-0.023978	3.358331
199.236815	3436.634708	1.561474	-0.024065	3.363179
199.658017	3447.693595	1.566479	-0.024147	3.368040
199.955618	3458.681224	1.571484	-0.024205	3.372848
200.494503	3469.705861	1.576488	-0.024309	3.377694
200.722869	3480.697376	1.581493	-0.024355	3.382481
201.176026	3491.772632	1.586498	-0.024442	3.387325
201.561614	3502.721696	1.591503	-0.024517	3.392099
202.099123	3513.774610	1.596507	-0.024621	3.396930
202.548618	3524.768894	1.601512	-0.024708	3.401717
202.805780	3535.825373	1.606517	-0.024759	3.406502
202.970241	3546.819367	1.611521	-0.024793	3.411242
203.435757	3557.837724	1.616526	-0.024883	3.416021
203.833003	3568.837637	1.621531	-0.024960	3.420778
204.208221	3579.873235	1.626536	-0.025033	3.425540
204.620124	3590.866828	1.631540	-0.025113	3.430283
204.956674	3601.910067	1.636545	-0.025179	3.435031
205.547077	3612.901685	1.641550	-0.025292	3.439780
205.931733	3623.956311	1.646555	-0.025367	3.444525
206.293570	3634.956316	1.651559	-0.025438	3.449238
206.837342	3645.951793	1.656564	-0.025543	3.453963
207.225356	3656.983582	1.661569	-0.025618	3.458679
207.718941	3667.998075	1.666573	-0.025714	3.463394
207.967998	3679.030840	1.671578	-0.025763	3.468081
208.246944	3690.029817	1.676583	-0.025818	3.472751
208.744296	3701.027029	1.681588	-0.025914	3.477440
209.232738	3712.047936	1.686592	-0.026009	3.482130
209.490942	3723.093581	1.691597	-0.026060	3.486799
209.732580	3734.114105	1.696602	-0.026108	3.491448
210.153526	3745.090905	1.701606	-0.026190	3.496094
210.684352	3756.135645	1.706611	-0.026292	3.500774
211.190471	3767.138075	1.711616	-0.026390	3.505427
211.706763	3778.143843	1.716621	-0.026489	3.510077
211.953102	3789.196823	1.721625	-0.026538	3.514709
212.235673	3800.217233	1.726630	-0.026594	3.519326
212.560468	3811.204080	1.731635	-0.026658	3.523928
213.118185	3822.231315	1.736640	-0.026765	3.528566
213.426386	3833.254425	1.741644	-0.026826	3.533169
213.962509	3844.234336	1.746649	-0.026929	3.537773
214.420898	3855.265163	1.751654	-0.027018	3.542383
214.861614	3866.292849	1.756658	-0.027103	3.546984
215.177047	3877.291731	1.761663	-0.027165	3.551553
215.648681	3888.323715	1.766668	-0.027256	3.556147
216.067150	3899.326195	1.771673	-0.027337	3.560717
216.614677	3910.352644	1.776677	-0.027443	3.565305
216.927806	3921.353875	1.781682	-0.027504	3.569851
217.320400	3932.392350	1.786687	-0.027581	3.574415
217.606880	3943.395051	1.791692	-0.027637	3.578947
217.923967	3954.441243	1.796696	-0.027699	3.583494
218.182037	3965.460103	1.801701	-0.027751	3.588018
218.578412	3976.430111	1.806706	-0.027828	3.592531
218.846412	3987.470009	1.811710	-0.027881	3.597053
219.140899	3998.493159	1.816715	-0.027939	3.601565
219.530428	4009.498950	1.821720	-0.028015	3.606075
219.906670	4020.517010	1.826725	-0.028088	3.610582
220.238724	4031.509997	1.831729	-0.028153	3.615069
220.644386	4042.544535	1.836734	-0.028232	3.619575
221.095233	4053.558013	1.841739	-0.028319	3.624072
221.731672	4064.553483	1.846744	-0.028441	3.628575
222.286246	4075.588714	1.851748	-0.028548	3.633080
222.829354	4086.604685	1.856753	-0.028653	3.637571
223.213784	4097.653308	1.861758	-0.028727	3.642052
223.548379	4108.700223	1.866762	-0.028793	3.646521
223.668654	4119.677161	1.871767	-0.028818	3.650935
224.130290	4130.739984	1.876772	-0.028908	3.655413
224.582559	4141.709886	1.881777	-0.028995	3.659847
225.070864	4152.736441	1.886781	-0.029090	3.664303
225.114019	4163.791759	1.891786	-0.029100	3.668718
225.158872	4174.810597	1.896791	-0.029112	3.673113
225.472333	4185.806942	1.901795	-0.029173	3.677522
225.718001	4196.797542	1.906800	-0.029222	3.681916
226.262237	4207.825841	1.911805	-0.029327	3.686351
226.699250	4218.832051	1.916810	-0.029411	3.690760
226.899356	4229.863039	1.921814	-0.029452	3.695150
227.281253	4240.860812	1.926819	-0.029526	3.699539
227.519130	4251.894394	1.931824	-0.029574	3.703923
227.911017	4262.906816	1.936829	-0.029650	3.708309
228.264511	4273.934653	1.941833	-0.029719	3.712692
228.819380	4284.942710	1.946838	-0.029826	3.717083
228.942758	4295.942467	1.951843	-0.029852	3.721421
229.222287	4307.002292	1.956847	-0.029907	3.725793
229.415994	4317.957372	1.961852	-0.029946	3.730111
229.955978	4328.996238	1.966857	-0.030050	3.734491
230.162076	4339.998077	1.971862	-0.030091	3.738818
230.508550	4351.036645	1.976866	-0.030159	3.743168
