Wed Nov 23 18:47:16 2022

Number of Points = 2200
Depth (nm)	Load (µN)	Time (s)	Depth (V)	Load (V)
-3.397970	-1.026660	0.000000	0.047928	0.912973
0.000000	6.149426	0.005005	0.047288	0.926536
1.405051	15.823009	0.010009	0.047022	0.942660
2.484634	26.626317	0.015014	0.046817	0.960066
3.709726	37.703070	0.020019	0.046584	0.977656
4.455388	48.968269	0.025024	0.046442	0.994950
5.263718	60.144189	0.030028	0.046287	1.011852
6.021123	71.336775	0.035033	0.046142	1.028472
6.523785	82.545444	0.040038	0.046045	1.044716
7.487841	93.620467	0.045043	0.045862	1.060763
8.012502	104.844814	0.050047	0.045760	1.076552
8.561829	115.994815	0.055052	0.045655	1.092024
9.033402	127.180498	0.060057	0.045563	1.107289
9.557503	138.277989	0.065061	0.045462	1.122256
10.163870	149.406226	0.070066	0.045346	1.137104
10.623289	160.524197	0.075071	0.045257	1.151678
11.259243	171.631332	0.080076	0.045135	1.166138
11.787877	182.760357	0.085080	0.045033	1.180398
12.265072	193.862948	0.090085	0.044940	1.194432
12.730804	205.003415	0.095090	0.044850	1.208343
13.053767	216.137943	0.100094	0.044787	1.222026
13.815728	227.128350	0.105099	0.044641	1.235576
27.944772	234.978428	0.110104	0.041988	1.251044
34.001180	248.276573	0.115109	0.040848	1.269223
34.380030	260.342272	0.120113	0.040774	1.283344
35.065517	271.541414	0.125118	0.040643	1.296452
35.793979	282.680873	0.130123	0.040504	1.309378
36.846578	293.660632	0.135128	0.040303	1.322131
37.833263	304.746615	0.140132	0.040115	1.334852
38.746932	315.824937	0.145137	0.039941	1.347415
40.030250	326.869260	0.150142	0.039698	1.359970
40.893223	338.007782	0.155146	0.039533	1.372347
41.759616	349.096052	0.160151	0.039368	1.384561
43.050417	360.073923	0.165156	0.039123	1.396713
43.729640	371.262095	0.170161	0.038993	1.408747
44.571641	382.306632	0.175165	0.038832	1.420591
45.341045	393.389320	0.180170	0.038685	1.432350
46.299705	404.416223	0.185175	0.038502	1.444024
47.302841	415.497184	0.190180	0.038311	1.455676
47.881909	426.626871	0.195184	0.038200	1.467130
48.980685	437.582077	0.200189	0.037991	1.478507
49.617546	448.711545	0.205194	0.037869	1.489805
50.504784	459.783349	0.210198	0.037699	1.501049
51.520171	470.760937	0.215203	0.037506	1.512162
52.742199	481.835248	0.220208	0.037274	1.523359
53.639666	492.918079	0.225213	0.037103	1.534370
54.626921	503.985848	0.230217	0.036915	1.545318
55.558005	515.036697	0.235222	0.036737	1.556154
56.471210	526.082891	0.240227	0.036563	1.566903
57.371495	537.148295	0.245232	0.036392	1.577593
58.241880	548.195496	0.250236	0.036226	1.588183
59.218717	559.238406	0.255241	0.036040	1.598734
59.767292	570.377527	0.260246	0.035934	1.609163
60.733816	581.365263	0.265250	0.035750	1.619523
61.373795	592.455721	0.270255	0.035627	1.629804
61.959017	603.503220	0.275260	0.035515	1.639964
62.795065	614.516792	0.280265	0.035355	1.650110
63.653399	625.555817	0.285269	0.035191	1.660224
64.859229	636.543040	0.290274	0.034962	1.670339
65.532891	647.690637	0.295279	0.034833	1.680368
66.346329	658.708816	0.300283	0.034678	1.690267
67.373097	669.710046	0.305288	0.034482	1.700159
68.273558	680.808789	0.310293	0.034311	1.710039
69.069007	691.826303	0.315298	0.034159	1.719760
70.064929	702.867320	0.320302	0.033969	1.729507
71.006170	713.923976	0.325307	0.033790	1.739195
71.643700	724.989300	0.330312	0.033667	1.748746
72.527843	736.013904	0.335317	0.033499	1.758284
73.443416	747.037988	0.340321	0.033324	1.767779
74.055038	758.143987	0.345326	0.033207	1.777201
74.857612	769.140543	0.350331	0.033053	1.786539
75.997465	780.124354	0.355335	0.032837	1.795915
76.994933	791.175805	0.360340	0.032647	1.805256
77.714359	802.296763	0.365345	0.032509	1.814525
78.505410	813.297857	0.370350	0.032358	1.823671
79.112602	824.362701	0.375354	0.032241	1.832770
79.904211	835.403321	0.380359	0.032090	1.841856
80.575577	846.429584	0.385364	0.031961	1.850852
81.393388	857.462901	0.390369	0.031805	1.859850
82.361157	868.453168	0.395373	0.031621	1.868812
83.170479	879.556299	0.400378	0.031466	1.877776
83.479340	890.639977	0.405383	0.031405	1.886546
84.229694	901.600796	0.410387	0.031262	1.895299
85.329670	912.582450	0.415392	0.031053	1.904121
86.301645	923.645622	0.420397	0.030868	1.912931
87.081954	934.738656	0.425402	0.030718	1.921672
87.688877	945.741841	0.430406	0.030602	1.930259
88.607448	956.798961	0.435411	0.030427	1.938930
89.126120	967.833611	0.440416	0.030327	1.947440
89.844694	978.861729	0.445421	0.030189	1.955961
90.701206	989.872654	0.450425	0.030026	1.964467
91.225779	1000.947196	0.455430	0.029925	1.972898
92.080463	1011.954578	0.460435	0.029761	1.981327
92.806221	1022.985830	0.465439	0.029622	1.989705
93.716068	1034.005667	0.470444	0.029449	1.998087
94.655309	1045.041884	0.475449	0.029270	2.006452
95.242624	1056.127780	0.480454	0.029157	2.014730
95.896030	1067.140529	0.485458	0.029032	2.022937
96.434686	1078.200491	0.490463	0.028928	2.031116
97.090120	1089.193506	0.495468	0.028802	2.039243
97.734050	1100.235428	0.500472	0.028679	2.047369
98.459397	1111.272852	0.505477	0.028540	2.055480
99.011753	1122.294173	0.510482	0.028434	2.063505
99.857710	1133.305102	0.515487	0.028272	2.071563
100.780851	1144.337481	0.520491	0.028096	2.079623
101.788553	1155.336507	0.525496	0.027904	2.087648
102.444147	1166.424760	0.530501	0.027779	2.095621
103.142993	1177.430166	0.535506	0.027645	2.103515
103.826117	1188.480035	0.540510	0.027514	2.111407
104.614741	1199.477837	0.545515	0.027363	2.119258
105.210466	1210.563932	0.550520	0.027249	2.127095
105.747184	1221.595893	0.555524	0.027145	2.134852
106.363701	1232.578129	0.560529	0.027027	2.142565
106.911020	1243.643696	0.565534	0.026921	2.150292
107.406960	1254.666485	0.570539	0.026825	2.157949
108.057329	1265.675659	0.575543	0.026701	2.165605
108.990344	1276.672133	0.580548	0.026523	2.173291
109.536955	1287.762515	0.585553	0.026418	2.180924
110.271749	1298.732970	0.590558	0.026277	2.188492
110.829263	1309.815592	0.595562	0.026170	2.196070
111.529738	1320.807583	0.600567	0.026035	2.203592
112.120804	1331.848553	0.605572	0.025922	2.211097
112.876059	1342.867860	0.610576	0.025777	2.218598
113.496843	1353.896759	0.615581	0.025658	2.226050
113.837336	1364.975600	0.620586	0.025592	2.233448
114.303926	1375.958753	0.625591	0.025501	2.240786
115.193888	1386.966186	0.630595	0.025332	2.248210
115.657504	1398.054855	0.635600	0.025242	2.255568
116.380109	1409.013225	0.640605	0.025104	2.262873
116.788384	1420.106239	0.645610	0.025024	2.270174
117.311886	1431.076500	0.650614	0.024923	2.277397
117.940443	1442.115372	0.655619	0.024803	2.284664
118.533902	1453.135639	0.660624	0.024688	2.291888
119.128565	1464.169834	0.665628	0.024574	2.299098
119.835179	1475.168869	0.670633	0.024439	2.306287
120.288881	1486.265316	0.675638	0.024351	2.313462
120.715951	1497.230780	0.680643	0.024268	2.320525
121.626407	1508.232404	0.685647	0.024095	2.327692
122.368784	1519.288392	0.690652	0.023953	2.334835
122.925972	1530.311882	0.695657	0.023845	2.341897
123.549040	1541.353676	0.700661	0.023726	2.348963
124.176109	1552.358251	0.705666	0.023605	2.355985
124.679908	1563.394652	0.710671	0.023508	2.362981
125.271707	1574.411853	0.715676	0.023394	2.369961
125.960645	1585.439189	0.720680	0.023262	2.376947
126.640305	1596.454620	0.725685	0.023132	2.383903
127.280142	1607.475388	0.730690	0.023009	2.390834
127.868477	1618.537222	0.735695	0.022896	2.397760
128.223715	1629.553798	0.740699	0.022827	2.404590
128.809831	1640.563593	0.745704	0.022714	2.411443
129.376270	1651.591068	0.750709	0.022605	2.418284
129.937355	1662.616676	0.755713	0.022497	2.425103
130.238720	1673.648340	0.760718	0.022438	2.431854
130.516530	1684.710582	0.765723	0.022383	2.438601
130.928245	1695.679424	0.770728	0.022303	2.445299
131.466093	1706.702378	0.775732	0.022199	2.452035
132.184613	1717.711437	0.780737	0.022062	2.458781
132.582810	1728.768684	0.785742	0.021984	2.465473
133.121271	1739.760216	0.790747	0.021880	2.472136
133.679090	1750.808986	0.795751	0.021773	2.478818
134.156697	1761.815761	0.800756	0.021681	2.485442
134.938174	1772.821795	0.805761	0.021531	2.492106
135.744352	1783.855168	0.810765	0.021377	2.498773
136.127537	1794.901347	0.815770	0.021303	2.505349
136.579299	1805.930342	0.820775	0.021215	2.511910
136.978277	1816.947502	0.825780	0.021137	2.518437
137.426764	1827.946994	0.830784	0.021051	2.524946
137.859441	1839.007737	0.835789	0.020967	2.531471
138.105130	1850.012359	0.840794	0.020918	2.537911
138.605396	1861.036593	0.845799	0.020821	2.544394
139.397682	1872.008290	0.850803	0.020670	2.550884
140.133192	1883.066956	0.855808	0.020529	2.557397
140.676229	1894.077241	0.860813	0.020425	2.563830
141.087850	1905.127502	0.865817	0.020345	2.570245
141.531122	1916.207507	0.870822	0.020259	2.576667
141.811330	1927.186417	0.875827	0.020203	2.582986
142.271821	1938.160739	0.880832	0.020114	2.589319
142.647911	1949.215533	0.885836	0.020041	2.595667
143.313861	1960.198578	0.890841	0.019913	2.602011
143.837654	1971.243018	0.895846	0.019812	2.608348
144.258576	1982.278412	0.900850	0.019730	2.614647
144.645674	1993.294577	0.905855	0.019655	2.620913
145.099587	2004.299287	0.910860	0.019567	2.627170
145.531613	2015.341467	0.915865	0.019483	2.633428
145.921263	2026.340352	0.920869	0.019408	2.639640
146.626119	2037.346807	0.925874	0.019273	2.645898
147.092467	2048.404221	0.930879	0.019182	2.652126
147.646949	2059.395667	0.935884	0.019076	2.658319
147.947698	2070.401504	0.940888	0.019016	2.664461
148.120907	2081.469125	0.945893	0.018981	2.670600
148.576860	2092.435245	0.950898	0.018893	2.676718
149.102621	2103.476600	0.955902	0.018792	2.682876
149.594973	2114.490170	0.960907	0.018696	2.688999
150.046849	2125.521726	0.965912	0.018609	2.695110
150.551643	2136.527809	0.970917	0.018511	2.701203
150.830671	2147.578496	0.975921	0.018456	2.707267
151.470223	2158.554894	0.980926	0.018334	2.713339
151.986363	2169.582369	0.985931	0.018234	2.719404
152.442204	2180.613673	0.990936	0.018146	2.725446
152.884144	2191.654152	0.995940	0.018060	2.731479
153.180094	2202.676706	1.000945	0.018002	2.737463
153.530511	2213.672316	1.005950	0.017933	2.743429
154.202151	2224.667245	1.010954	0.017805	2.749435
154.628875	2235.738195	1.015959	0.017722	2.755428
155.026909	2246.722140	1.020964	0.017644	2.761356
155.555936	2257.760775	1.025969	0.017542	2.767323
156.142450	2268.754158	1.030973	0.017430	2.773262
156.769870	2279.773204	1.035978	0.017309	2.779208
157.096619	2290.826063	1.040983	0.017245	2.785110
157.515738	2301.838440	1.045988	0.017164	2.790993
157.955901	2312.866237	1.050992	0.017078	2.796875
158.246014	2323.889033	1.055997	0.017021	2.802718
158.653995	2334.875282	1.061002	0.016942	2.808548
159.125707	2345.936089	1.066006	0.016851	2.814415
159.626840	2356.919899	1.071011	0.016754	2.820235
159.888617	2367.980906	1.076016	0.016702	2.826044
160.222045	2378.986320	1.081021	0.016637	2.831824
160.577196	2389.990442	1.086025	0.016568	2.837595
161.170772	2400.996087	1.091030	0.016453	2.843393
161.625249	2412.031662	1.096035	0.016365	2.849172
162.218531	2423.028545	1.101039	0.016251	2.854941
162.493930	2434.095519	1.106044	0.016197	2.860684
163.088024	2445.067956	1.111049	0.016083	2.866418
163.454604	2456.128285	1.116054	0.016011	2.872149
164.112717	2467.076249	1.121058	0.015885	2.877857
164.689017	2478.151412	1.126063	0.015774	2.883606
164.982039	2489.186216	1.131068	0.015716	2.889278
165.249781	2500.218878	1.136073	0.015663	2.894933
165.668162	2511.194633	1.141077	0.015582	2.900573
166.104855	2522.202045	1.146082	0.015498	2.906220
166.580715	2533.252136	1.151087	0.015406	2.911883
167.040762	2544.248673	1.156091	0.015317	2.917506
167.409610	2555.274981	1.161096	0.015245	2.923120
167.649766	2566.319942	1.166101	0.015197	2.928711
168.191356	2577.299360	1.171106	0.015092	2.934306
168.704666	2588.318956	1.176110	0.014993	2.939905
169.309065	2599.333685	1.181115	0.014877	2.945505
169.856619	2610.388614	1.186120	0.014772	2.951105
169.877904	2621.389185	1.191125	0.014765	2.956589
170.312505	2632.411085	1.196129	0.014681	2.962135
170.912361	2643.419775	1.201134	0.014566	2.967688
171.132259	2654.474669	1.206139	0.014522	2.973197
171.366188	2665.465809	1.211143	0.014475	2.978667
171.780906	2676.474040	1.216148	0.014394	2.984162
172.445843	2687.485806	1.221153	0.014267	2.989685
172.992010	2698.498611	1.226158	0.014162	2.995181
173.466164	2709.546338	1.231162	0.014070	3.000673
174.007379	2720.564024	1.236167	0.013966	3.006150
174.200317	2731.589648	1.241172	0.013927	3.011570
174.411836	2742.590714	1.246177	0.013884	3.016971
174.768934	2753.606482	1.251181	0.013815	3.022390
175.167930	2764.639486	1.256186	0.013737	3.027815
175.630643	2775.644654	1.261191	0.013647	3.033225
175.691797	2786.692905	1.266195	0.013633	3.038588
176.010006	2797.681883	1.271200	0.013571	3.043950
176.261367	2808.721577	1.276205	0.013521	3.049317
176.362187	2819.730033	1.281210	0.013499	3.054638
176.735907	2830.748438	1.286214	0.013426	3.059994
177.215585	2841.722446	1.291219	0.013334	3.065334
177.900854	2852.771527	1.296224	0.013202	3.070730
178.315755	2863.788733	1.301228	0.013122	3.076063
178.543654	2874.803942	1.306233	0.013076	3.081359
179.356100	2885.800340	1.311238	0.012921	3.086719
179.901772	2896.834214	1.316243	0.012816	3.092050
180.168036	2907.854200	1.321247	0.012763	3.097326
180.497387	2918.890386	1.326252	0.012699	3.102610
180.607742	2929.918193	1.331257	0.012675	3.107849
180.902502	2940.921458	1.336262	0.012617	3.113094
181.308772	2951.938466	1.341266	0.012538	3.118352
181.746793	2962.949228	1.346271	0.012453	3.123603
182.370550	2973.951473	1.351276	0.012334	3.128866
182.808576	2984.987691	1.356280	0.012249	3.134111
183.156754	2996.015990	1.361285	0.012181	3.139331
183.469876	3007.022595	1.366290	0.012119	3.144527
183.932026	3018.030726	1.371295	0.012030	3.149735
184.455778	3029.047536	1.376299	0.011929	3.154947
184.776459	3040.088968	1.381304	0.011866	3.160134
185.122475	3051.080326	1.386309	0.011798	3.165293
185.422654	3062.129633	1.391314	0.011739	3.170464
185.670681	3073.120188	1.396318	0.011690	3.175592
186.006001	3084.139749	1.401323	0.011624	3.180738
186.286030	3095.174693	1.406328	0.011569	3.185874
186.685942	3106.168430	1.411332	0.011491	3.190999
187.064581	3117.187809	1.416337	0.011417	3.196125
187.602234	3128.210295	1.421342	0.011314	3.201265
187.901224	3139.248921	1.426347	0.011255	3.206372
188.343779	3150.226983	1.431351	0.011169	3.211462
188.555213	3161.278321	1.436356	0.011127	3.216548
188.904712	3172.269767	1.441361	0.011059	3.221615
189.224945	3183.316118	1.446366	0.010996	3.226697
189.436354	3194.316997	1.451370	0.010953	3.231735
189.832546	3205.322437	1.456375	0.010876	3.236791
190.613730	3216.314253	1.461380	0.010727	3.241884
190.888011	3227.390989	1.466384	0.010673	3.246940
191.119560	3238.374005	1.471389	0.010627	3.251941
191.188321	3249.424448	1.476394	0.010611	3.256943
191.390227	3260.426684	1.481399	0.010570	3.261934
191.820218	3271.434589	1.486403	0.010487	3.266948
192.478319	3282.426374	1.491408	0.010361	3.271977
192.717689	3293.490320	1.496413	0.010313	3.276977
192.981196	3304.472524	1.501417	0.010261	3.281935
193.368283	3315.521399	1.506422	0.010185	3.286932
193.649747	3326.513517	1.511427	0.010130	3.291881
193.942172	3337.532634	1.516432	0.010072	3.296837
194.124219	3348.567151	1.521436	0.010035	3.301779
194.415216	3359.560670	1.526441	0.009978	3.306708
194.768258	3370.581355	1.531446	0.009909	3.311650
195.329047	3381.585149	1.536451	0.009801	3.316603
196.001900	3392.592467	1.541455	0.009672	3.321564
196.261922	3403.664111	1.546460	0.009621	3.326494
196.438343	3414.641742	1.551465	0.009585	3.331365
196.836421	3425.676279	1.556469	0.009507	3.336282
197.381749	3436.644692	1.561474	0.009402	3.341180
197.917514	3447.689992	1.566479	0.009299	3.346104
198.424152	3458.702682	1.571484	0.009201	3.351002
198.756220	3469.753424	1.576488	0.009136	3.355888
199.155094	3480.738268	1.581493	0.009059	3.360747
199.442368	3491.802253	1.586498	0.009002	3.365619
199.763027	3502.774402	1.591503	0.008939	3.370448
200.260491	3513.789631	1.596507	0.008843	3.375311
200.767567	3524.795568	1.601512	0.008745	3.380163
201.098702	3535.852037	1.606517	0.008680	3.385009
201.277941	3546.873629	1.611521	0.008644	3.389815
201.600774	3557.860777	1.616526	0.008581	3.394616
202.120425	3568.870151	1.621531	0.008481	3.399443
202.324291	3579.905762	1.626536	0.008440	3.404237
202.720820	3590.912084	1.631540	0.008362	3.409035
202.947190	3601.938204	1.636545	0.008317	3.413813
203.261595	3612.950409	1.641550	0.008255	3.418590
203.834617	3623.953670	1.646555	0.008145	3.423387
204.404374	3634.953440	1.651559	0.008036	3.428175
204.927651	3645.990782	1.656564	0.007935	3.432967
205.329982	3657.010407	1.661569	0.007856	3.437730
205.738788	3668.024169	1.666573	0.007777	3.442485
206.048187	3679.062744	1.671578	0.007716	3.447232
206.491117	3690.044742	1.676583	0.007630	3.451964
206.790038	3701.079049	1.681588	0.007572	3.456695
207.183690	3712.100428	1.686592	0.007495	3.461425
207.588567	3723.096620	1.691597	0.007416	3.466139
207.762898	3734.153920	1.696602	0.007381	3.470845
208.047487	3745.123005	1.701606	0.007325	3.475521
208.538286	3756.148067	1.706611	0.007230	3.480238
208.814662	3767.185943	1.711616	0.007175	3.484928
209.004295	3778.214551	1.716621	0.007137	3.489599
209.288300	3789.194424	1.721625	0.007081	3.494253
209.527720	3800.245246	1.726630	0.007033	3.498926
209.953773	3811.231052	1.731635	0.006951	3.503587
210.485404	3822.266409	1.736640	0.006848	3.508275
210.661323	3833.275225	1.741644	0.006812	3.512904
210.848076	3844.313709	1.746649	0.006775	3.517541
211.094740	3855.290781	1.751654	0.006726	3.522153
211.485893	3866.327098	1.756658	0.006650	3.526799
211.880726	3877.345832	1.761663	0.006573	3.531433
212.356685	3888.355147	1.766668	0.006481	3.536066
212.657330	3899.346371	1.771673	0.006422	3.540665
213.005100	3910.383089	1.776677	0.006354	3.545283
213.264971	3921.391173	1.781682	0.006302	3.549872
213.447814	3932.442856	1.786687	0.006265	3.554465
213.811894	3943.429860	1.791692	0.006194	3.559046
214.107610	3954.464921	1.796696	0.006136	3.563633
214.482930	3965.462719	1.801701	0.006063	3.568207
214.931994	3976.475630	1.806706	0.005976	3.572790
215.254545	3987.480853	1.811710	0.005912	3.577350
215.496674	3998.496128	1.816715	0.005864	3.581899
215.800057	4009.537394	1.821720	0.005805	3.586459
216.203475	4020.541023	1.826725	0.005726	3.591010
216.651506	4031.546276	1.831729	0.005639	3.595560
216.934775	4042.603800	1.836734	0.005583	3.600107
217.270147	4053.576649	1.841739	0.005518	3.604620
217.476329	4064.635583	1.846744	0.005476	3.609148
217.610160	4075.618856	1.851748	0.005449	3.613632
217.873878	4086.655114	1.856753	0.005396	3.618146
218.216672	4097.684369	1.861758	0.005329	3.622660
218.445251	4108.726431	1.866762	0.005284	3.627161
218.868041	4119.717002	1.871767	0.005202	3.631656
219.277119	4130.763832	1.876772	0.005122	3.636167
219.678504	4141.744024	1.881777	0.005044	3.640644
219.959359	4152.789330	1.886781	0.004989	3.645130
220.318591	4163.763431	1.891786	0.004919	3.649589
220.801102	4174.817341	1.896791	0.004825	3.654088
220.763390	4185.849103	1.901795	0.004830	3.658518
221.066970	4196.879045	1.906800	0.004770	3.662977
221.476128	4207.852850	1.911805	0.004690	3.667420
221.796928	4218.890069	1.916810	0.004628	3.671873
222.007688	4229.893308	1.921814	0.004585	3.676296
222.079521	4240.896361	1.926819	0.004569	3.680698
222.401943	4251.938630	1.931824	0.004506	3.685138
222.466443	4262.945960	1.936829	0.004491	3.689531
222.950919	4273.916353	1.941833	0.004397	3.693947
223.537172	4284.960176	1.946838	0.004285	3.698398
223.840171	4295.976822	1.951843	0.004225	3.702804
224.072260	4307.022967	1.956847	0.004179	3.707208
224.612843	4317.980093	1.961852	0.004075	3.711604
225.232234	4329.028113	1.966857	0.003956	3.716039
225.690844	4340.005135	1.971862	0.003867	3.720423
226.053327	4351.082179	1.976866	0.003796	3.724832
226.469494	4362.043060	1.981871	0.003715	3.729195
226.645459	4373.111044	1.986876	0.003680	3.733571
227.066737	4384.107302	1.991881	0.003598	3.737939
227.142052	4395.156825	1.996885	0.003581	3.742287
227.513769	4406.136438	2.001890	0.003508	3.746632
227.696635	4417.153074	2.006895	0.003471	3.750968
