Wed Nov 23 19:06:18 2022

Number of Points = 2200
Depth (nm)	Load (µN)	Time (s)	Depth (V)	Load (V)
-6.253034	1.874161	0.000000	-0.034360	1.148367
0.000000	7.293349	0.005005	-0.035534	1.158148
6.784841	16.511115	0.010009	-0.036810	1.172830
11.364594	27.746882	0.015014	-0.037672	1.188814
13.882325	39.295820	0.020019	-0.038147	1.204045
15.692959	50.614928	0.025024	-0.038490	1.218498
16.771884	61.906783	0.030028	-0.038695	1.232431
17.807785	73.049958	0.035033	-0.038892	1.246015
18.553459	84.198067	0.040038	-0.039035	1.259334
19.302355	95.307170	0.045043	-0.039178	1.272470
19.707854	106.465328	0.050047	-0.039257	1.285384
20.493392	117.507466	0.055052	-0.039407	1.298195
20.842747	128.677056	0.060057	-0.039475	1.310846
21.405906	139.707662	0.065061	-0.039584	1.323307
21.761561	150.801930	0.070066	-0.039653	1.335640
22.324652	161.844665	0.075071	-0.039762	1.347885
22.662334	172.956339	0.080076	-0.039828	1.360005
23.195744	184.022007	0.085080	-0.039930	1.372045
23.627268	195.090289	0.090085	-0.040014	1.383944
24.225377	206.132939	0.095090	-0.040129	1.395777
24.755526	217.207486	0.100094	-0.040231	1.407518
25.511130	228.228340	0.105099	-0.040376	1.419190
25.845434	239.387422	0.110104	-0.040441	1.430752
26.310824	250.442180	0.115109	-0.040531	1.442163
26.509655	261.523580	0.120113	-0.040571	1.453415
27.039783	272.555501	0.125118	-0.040674	1.464650
27.459604	283.606611	0.130123	-0.040755	1.475779
28.026464	294.659358	0.135128	-0.040864	1.486878
28.264598	305.774383	0.140132	-0.040912	1.497840
40.067698	314.062152	0.145137	-0.043129	1.510005
48.623392	326.878535	0.150142	-0.044737	1.525288
49.757010	338.716956	0.155146	-0.044953	1.536962
50.935399	349.841989	0.160151	-0.045177	1.547890
52.112024	360.906141	0.165156	-0.045400	1.558683
53.053444	371.994913	0.170161	-0.045580	1.569346
54.388066	382.990914	0.175165	-0.045833	1.579981
55.219524	394.133881	0.180170	-0.045991	1.590514
56.362724	405.132917	0.185175	-0.046209	1.600947
57.439122	416.182586	0.190180	-0.046413	1.611336
58.598442	427.278711	0.195184	-0.046634	1.621726
59.337436	438.336676	0.200189	-0.046775	1.631882
60.170784	449.387070	0.205194	-0.046934	1.641998
61.122424	460.395191	0.210198	-0.047115	1.652051
62.334456	471.420183	0.215203	-0.047346	1.662139
63.313466	482.510972	0.220208	-0.047532	1.672151
64.312230	493.545624	0.225213	-0.047722	1.682060
65.322403	504.582936	0.230217	-0.047914	1.691916
66.518226	515.617923	0.235222	-0.048142	1.701769
67.430092	526.683734	0.240227	-0.048315	1.711505
68.620958	537.691842	0.245232	-0.048542	1.721220
69.509192	548.778063	0.250236	-0.048711	1.730856
70.604231	559.787563	0.255241	-0.048919	1.740435
71.503913	570.866139	0.260246	-0.049091	1.749962
72.403824	581.909475	0.265250	-0.049262	1.759407
73.130370	592.964179	0.270255	-0.049401	1.768760
74.359456	603.969268	0.275260	-0.049635	1.778168
75.382993	615.005788	0.280265	-0.049830	1.787493
76.332486	626.044855	0.285269	-0.050010	1.796750
77.273442	637.111235	0.290274	-0.050190	1.805978
78.275882	648.118088	0.295279	-0.050381	1.815129
79.265559	659.183498	0.300283	-0.050569	1.824276
79.938478	670.273019	0.305288	-0.050698	1.833309
80.588743	681.292120	0.310293	-0.050823	1.842234
81.677747	692.284185	0.315298	-0.051030	1.851216
82.463846	703.343891	0.320302	-0.051180	1.860124
83.861957	714.317584	0.325307	-0.051445	1.869089
84.603325	725.448065	0.330312	-0.051587	1.877954
85.448853	736.449411	0.335317	-0.051748	1.886706
86.141887	747.525137	0.340321	-0.051881	1.895433
86.948029	758.525953	0.345326	-0.052035	1.904093
87.594581	769.580823	0.350331	-0.052159	1.912712
88.677717	780.587645	0.355335	-0.052365	1.921371
89.487250	791.639673	0.360340	-0.052520	1.929952
90.411881	802.665688	0.365345	-0.052696	1.938506
91.026846	813.720525	0.370350	-0.052814	1.946963
91.812602	824.744810	0.375354	-0.052964	1.955405
92.589196	835.777020	0.380359	-0.053113	1.963813
93.548052	846.793808	0.385364	-0.053295	1.972221
94.263611	857.840677	0.390369	-0.053432	1.980553
95.167314	868.866932	0.395373	-0.053605	1.988881
95.767822	879.924201	0.400378	-0.053720	1.997122
96.599871	890.954135	0.405383	-0.053879	2.005366
97.206002	901.985917	0.410387	-0.053995	2.013521
98.008403	913.004512	0.415392	-0.054149	2.021682
98.636359	924.046299	0.420397	-0.054269	2.029784
99.314344	935.099308	0.425402	-0.054399	2.037873
99.933062	946.107707	0.430406	-0.054518	2.045884
100.913804	957.107652	0.435411	-0.054705	2.053945
101.505458	968.175375	0.440416	-0.054819	2.061928
102.535276	979.160763	0.445421	-0.055015	2.069928
102.946608	990.272474	0.450425	-0.055095	2.077837
103.575603	1001.274490	0.455430	-0.055215	2.085691
104.272029	1012.281418	0.460435	-0.055349	2.093535
105.126930	1023.311441	0.465439	-0.055512	2.101402
105.697115	1034.376020	0.470444	-0.055622	2.109197
106.346655	1045.393074	0.475449	-0.055746	2.116949
106.952057	1056.425538	0.480454	-0.055862	2.124673
107.488808	1067.471650	0.485458	-0.055966	2.132361
108.097965	1078.495585	0.490463	-0.056083	2.140024
108.721935	1089.483837	0.495468	-0.056203	2.147638
109.408120	1100.548424	0.500472	-0.056334	2.155291
109.795798	1111.598172	0.505477	-0.056410	2.162838
110.174206	1122.639689	0.510482	-0.056483	2.170352
110.717286	1133.637279	0.515487	-0.056588	2.177847
111.434286	1144.616475	0.520491	-0.056725	2.185343
112.275377	1155.650608	0.525496	-0.056886	2.192877
112.568519	1166.767520	0.530501	-0.056944	2.200318
113.180016	1177.731304	0.535506	-0.057061	2.207704
113.698481	1188.765571	0.540510	-0.057161	2.215090
115.031642	1199.647276	0.545515	-0.057414	2.222531
116.226563	1210.793794	0.550520	-0.057641	2.230089
116.676220	1221.862166	0.555524	-0.057728	2.237408
116.891856	1232.925487	0.560529	-0.057771	2.244649
117.370956	1243.904645	0.565534	-0.057864	2.251868
117.788149	1254.948062	0.570539	-0.057945	2.259093
118.404276	1265.929996	0.575543	-0.058063	2.266298
118.908604	1276.999124	0.580548	-0.058161	2.273511
119.406873	1287.991198	0.585553	-0.058257	2.280651
119.934973	1299.032140	0.590558	-0.058359	2.287806
120.540778	1310.054623	0.595562	-0.058475	2.294944
121.246953	1321.042280	0.600567	-0.058610	2.302057
122.033036	1332.074643	0.605572	-0.058761	2.309194
122.750324	1343.111670	0.610576	-0.058898	2.316297
123.219759	1354.164930	0.615581	-0.058989	2.323337
123.924154	1365.160844	0.620586	-0.059124	2.330368
124.450836	1376.213160	0.625591	-0.059225	2.337376
124.836662	1387.248154	0.630595	-0.059300	2.344323
125.330181	1398.253933	0.635600	-0.059396	2.351254
125.806180	1409.277788	0.640605	-0.059488	2.358171
126.113134	1420.328744	0.645610	-0.059548	2.365051
126.703002	1431.312695	0.650614	-0.059661	2.371926
127.177184	1442.373687	0.655619	-0.059753	2.378806
127.873154	1453.332294	0.660624	-0.059886	2.385647
128.473463	1464.402083	0.665628	-0.060002	2.392517
129.220284	1475.379845	0.670633	-0.060145	2.399341
129.902788	1486.436660	0.675638	-0.060275	2.406180
130.440385	1497.491303	0.680643	-0.060379	2.412969
130.792599	1508.484912	0.685647	-0.060448	2.419666
131.780218	1519.454546	0.690652	-0.060636	2.426455
132.227599	1530.572965	0.695657	-0.060723	2.433208
132.685212	1541.561669	0.700661	-0.060811	2.439866
133.303664	1552.574683	0.705666	-0.060930	2.446552
133.996986	1563.589579	0.710671	-0.061063	2.453235
134.436574	1574.644476	0.715676	-0.061148	2.459875
134.973969	1585.635377	0.720680	-0.061252	2.466477
135.670167	1596.677718	0.725685	-0.061385	2.473122
136.263080	1607.678070	0.730690	-0.061499	2.479705
136.672569	1618.748415	0.735695	-0.061578	2.486277
137.172101	1629.748342	0.740699	-0.061675	2.492807
137.765660	1640.752158	0.745704	-0.061789	2.499339
138.249927	1651.794190	0.750709	-0.061883	2.505856
138.777639	1662.814977	0.755713	-0.061984	2.512352
139.534003	1673.810777	0.760718	-0.062129	2.518859
139.943355	1684.866523	0.765723	-0.062209	2.525319
140.554011	1695.857383	0.770728	-0.062326	2.531763
140.996343	1706.940408	0.775732	-0.062412	2.538211
141.571978	1717.874522	0.780737	-0.062522	2.544583
141.951406	1728.990021	0.785742	-0.062596	2.551006
142.391549	1739.959368	0.790747	-0.062682	2.557340
142.913365	1750.994851	0.795751	-0.062782	2.563712
143.590961	1761.988359	0.800756	-0.062912	2.570071
144.157058	1773.097757	0.805761	-0.063021	2.576461
144.532538	1784.072372	0.810765	-0.063094	2.582723
144.681530	1795.105635	0.815770	-0.063125	2.588963
145.129566	1806.082796	0.820775	-0.063212	2.595210
145.503981	1817.135668	0.825780	-0.063285	2.601471
146.159211	1828.095753	0.830784	-0.063410	2.607715
146.841619	1839.146065	0.835789	-0.063541	2.613999
147.609316	1850.163826	0.840794	-0.063688	2.620264
147.900418	1861.210231	0.845799	-0.063745	2.626447
148.504512	1872.209369	0.850803	-0.063861	2.632643
148.906427	1883.266449	0.855808	-0.063939	2.638821
149.348245	1894.245984	0.860813	-0.064025	2.644949
150.032008	1905.294415	0.865817	-0.064156	2.651143
150.275196	1916.322468	0.870822	-0.064205	2.657234
150.853686	1927.318986	0.875827	-0.064316	2.663353
151.333025	1938.333456	0.880832	-0.064408	2.669449
151.831852	1949.354950	0.885836	-0.064505	2.675539
152.191269	1960.406026	0.890841	-0.064575	2.681607
152.524597	1971.428021	0.895846	-0.064640	2.687641
153.051575	1982.433179	0.900850	-0.064742	2.693685
153.391067	1993.453951	0.905855	-0.064808	2.699692
153.883028	2004.438339	0.910860	-0.064903	2.705692
154.414127	2015.512197	0.915865	-0.065006	2.711733
154.938029	2026.504120	0.920869	-0.065107	2.717715
155.312121	2037.545797	0.925874	-0.065180	2.723686
155.756768	2048.529154	0.930879	-0.065266	2.729624
156.307102	2059.546101	0.935884	-0.065372	2.735585
156.846877	2070.546398	0.940888	-0.065476	2.741521
157.138679	2081.614658	0.945893	-0.065533	2.747440
157.444792	2092.613511	0.950898	-0.065593	2.753312
157.875782	2103.623848	0.955902	-0.065677	2.759197
158.304676	2114.645844	0.960907	-0.065760	2.765076
158.634543	2125.690028	0.965912	-0.065825	2.770937
158.999856	2136.686217	0.970917	-0.065896	2.776767
159.348482	2147.719523	0.975921	-0.065964	2.782601
159.860958	2158.701538	0.980926	-0.066063	2.788423
160.287010	2169.749575	0.985931	-0.066146	2.794253
160.966588	2180.758131	0.990936	-0.066276	2.800090
161.365925	2191.778703	0.995940	-0.066354	2.805877
161.833985	2202.809667	1.000945	-0.066444	2.811668
162.072674	2213.838860	1.005950	-0.066492	2.817409
162.517571	2224.829489	1.010954	-0.066578	2.823152
163.057789	2235.849391	1.015959	-0.066682	2.828913
163.735215	2246.853097	1.020964	-0.066812	2.834676
164.253701	2257.910759	1.025969	-0.066912	2.840429
164.465586	2268.940017	1.030973	-0.066954	2.846108
164.720640	2279.959307	1.035978	-0.067005	2.851776
165.083882	2290.948553	1.040983	-0.067076	2.857436
165.305124	2301.999356	1.045988	-0.067120	2.863093
165.826857	2312.980032	1.050992	-0.067221	2.868750
166.150007	2324.032198	1.055997	-0.067284	2.874401
166.556974	2335.042507	1.061002	-0.067363	2.880033
166.992165	2346.040828	1.066006	-0.067448	2.885652
167.562513	2357.080553	1.071011	-0.067557	2.891301
167.867940	2368.107275	1.076016	-0.067617	2.896893
168.487751	2379.075873	1.081021	-0.067736	2.902492
169.141373	2390.111597	1.086025	-0.067862	2.908119
169.719835	2401.129853	1.091030	-0.067973	2.913715
170.057799	2412.184306	1.096035	-0.068039	2.919281
170.416583	2423.183636	1.101039	-0.068109	2.924813
170.957618	2434.194726	1.106044	-0.068214	2.930367
171.149664	2445.226190	1.111049	-0.068252	2.935869
171.515446	2456.261222	1.116054	-0.068324	2.941387
171.885595	2467.256640	1.121058	-0.068396	2.946877
172.241704	2478.273437	1.126063	-0.068465	2.952364
172.557597	2489.308072	1.131068	-0.068527	2.957844
172.944784	2500.315922	1.136073	-0.068603	2.963312
173.258905	2511.353861	1.141077	-0.068664	2.968773
173.443543	2522.365377	1.146082	-0.068702	2.974191
174.045967	2533.349309	1.151087	-0.068818	2.979648
174.479486	2544.393376	1.156091	-0.068902	2.985100
174.861547	2555.404933	1.161096	-0.068976	2.990518
175.353471	2566.417384	1.166101	-0.069071	2.995942
175.696651	2577.440251	1.171106	-0.069138	3.001340
176.079982	2588.454533	1.176110	-0.069213	3.006730
176.404345	2599.493102	1.181115	-0.069277	3.012113
176.457813	2610.514365	1.186120	-0.069289	3.017439
176.973904	2621.495967	1.191125	-0.069389	3.022804
177.275936	2632.553801	1.196129	-0.069448	3.028164
177.801055	2643.529830	1.201134	-0.069549	3.033508
178.421225	2654.560713	1.206139	-0.069669	3.038882
178.872350	2665.580501	1.211143	-0.069756	3.044216
179.474754	2676.599315	1.216148	-0.069872	3.049563
179.923380	2687.601897	1.221153	-0.069959	3.054870
180.346126	2698.652812	1.226158	-0.070041	3.060188
180.948287	2709.619513	1.231162	-0.070156	3.065481
181.282970	2720.718737	1.236167	-0.070222	3.070790
181.487634	2731.683926	1.241172	-0.070263	3.076009
181.878255	2742.729331	1.246177	-0.070339	3.081282
182.273985	2753.705791	1.251181	-0.070416	3.086515
182.584673	2764.784153	1.256186	-0.070477	3.091774
182.856588	2775.752902	1.261191	-0.070531	3.096968
183.173292	2786.783752	1.266195	-0.070593	3.102188
183.474147	2797.808180	1.271200	-0.070652	3.107394
184.025858	2808.805683	1.276205	-0.070758	3.112614
184.533038	2819.821941	1.281210	-0.070856	3.117827
184.764349	2830.866454	1.286214	-0.070902	3.123007
185.159430	2841.861369	1.291219	-0.070979	3.128177
185.403722	2852.900254	1.296224	-0.071028	3.133339
185.717184	2863.885478	1.301228	-0.071089	3.138476
186.224911	2874.920615	1.306233	-0.071187	3.143655
186.574528	2885.931466	1.311238	-0.071256	3.148792
186.838293	2896.989116	1.316243	-0.071308	3.153931
187.104275	2907.961360	1.321247	-0.071361	3.159022
187.675722	2918.995719	1.326252	-0.071471	3.164175
188.174980	2929.986676	1.331257	-0.071567	3.169289
188.485186	2941.036573	1.336262	-0.071628	3.174397
188.765606	2952.041580	1.341266	-0.071683	3.179472
189.117959	2963.067516	1.346271	-0.071752	3.184558
189.475445	2974.084625	1.351276	-0.071822	3.189633
189.781770	2985.100864	1.356280	-0.071882	3.194692
189.924318	2996.132130	1.361285	-0.071912	3.199728
190.612759	3007.102247	1.366290	-0.072043	3.204801
191.165119	3018.140092	1.371295	-0.072150	3.209878
191.530774	3029.153221	1.376299	-0.072221	3.214911
192.117280	3040.162505	1.381304	-0.072334	3.219963
192.397079	3051.205294	1.386309	-0.072389	3.224983
192.871228	3062.212447	1.391314	-0.072481	3.230004
193.071322	3073.252762	1.396318	-0.072521	3.234996
193.425298	3084.230686	1.401323	-0.072590	3.239973
193.784522	3095.270327	1.406328	-0.072660	3.244970
194.121853	3106.292456	1.411332	-0.072726	3.249948
194.516601	3117.283950	1.416337	-0.072803	3.254913
194.830605	3128.312215	1.421342	-0.072865	3.259876
195.145957	3139.343903	1.426347	-0.072927	3.264833
195.550719	3150.351015	1.431351	-0.073005	3.269783
195.800535	3161.359623	1.436356	-0.073055	3.274706
196.449244	3172.356656	1.441361	-0.073180	3.279668
196.836572	3183.415034	1.446366	-0.073255	3.284615
197.170142	3194.411109	1.451370	-0.073320	3.289521
197.488405	3205.443136	1.456375	-0.073383	3.294434
197.793182	3216.450434	1.461380	-0.073443	3.299326
198.017084	3227.474589	1.466384	-0.073487	3.304209
198.566084	3238.477958	1.471389	-0.073593	3.309115
198.726130	3249.507865	1.476394	-0.073626	3.313978
199.072944	3260.515620	1.481399	-0.073694	3.318847
199.469271	3271.531620	1.486403	-0.073771	3.323718
199.756111	3282.557878	1.491408	-0.073827	3.328573
200.062150	3293.553593	1.496413	-0.073887	3.333410
200.360797	3304.596338	1.501417	-0.073946	3.338259
200.615211	3315.608283	1.506422	-0.073997	3.343083
201.069182	3326.598319	1.511427	-0.074085	3.347914
201.361238	3337.650818	1.516432	-0.074142	3.352746
201.733090	3348.636621	1.521436	-0.074215	3.357551
202.196266	3359.665670	1.526441	-0.074304	3.362379
202.616732	3370.671630	1.531446	-0.074386	3.367185
203.011608	3381.703773	1.536451	-0.074463	3.371992
203.116820	3392.718312	1.541455	-0.074485	3.376750
203.450308	3403.737130	1.546460	-0.074551	3.381531
203.757028	3414.749504	1.551465	-0.074611	3.386298
204.123023	3425.760474	1.556469	-0.074682	3.391066
204.353239	3436.787842	1.561474	-0.074728	3.395817
204.618523	3447.816759	1.566479	-0.074781	3.400566
204.925573	3458.815393	1.571484	-0.074841	3.405301
205.322421	3469.831112	1.576488	-0.074918	3.410047
205.628393	3480.838581	1.581493	-0.074978	3.414773
206.078405	3491.873900	1.586498	-0.075065	3.419520
206.344072	3502.889134	1.591503	-0.075118	3.424230
206.507167	3513.913486	1.596507	-0.075151	3.428926
207.055617	3524.880051	1.601512	-0.075257	3.433636
207.340418	3535.954011	1.606517	-0.075313	3.438354
207.702787	3546.915625	1.611521	-0.075384	3.443027
208.253637	3557.955454	1.616526	-0.075490	3.447748
208.421036	3568.987933	1.621531	-0.075524	3.452416
208.664239	3580.004316	1.626536	-0.075572	3.457079
209.111404	3590.971742	1.631540	-0.075659	3.461738
209.594978	3602.027049	1.636545	-0.075753	3.466433
209.818180	3613.050446	1.641550	-0.075797	3.471077
210.144913	3624.046355	1.646555	-0.075861	3.475716
210.503171	3635.069593	1.651559	-0.075931	3.480363
210.821826	3646.119446	1.656564	-0.075994	3.485011
211.180729	3657.087189	1.661569	-0.076064	3.489623
211.384606	3668.137465	1.666573	-0.076105	3.494245
211.906899	3679.126569	1.671578	-0.076205	3.498872
212.230012	3690.167462	1.676583	-0.076269	3.503492
212.703428	3701.158362	1.681588	-0.076360	3.508101
212.869936	3712.196733	1.686592	-0.076394	3.512690
213.165218	3723.208050	1.691597	-0.076452	3.517276
213.465870	3734.209110	1.696602	-0.076512	3.521852
213.770843	3745.244802	1.701606	-0.076572	3.526437
214.118138	3756.261727	1.706611	-0.076639	3.531013
214.471006	3767.252270	1.711616	-0.076708	3.535573
214.765352	3778.282964	1.716621	-0.076766	3.540137
215.099560	3789.308310	1.721625	-0.076832	3.544697
215.286269	3800.326018	1.726630	-0.076870	3.549231
215.516292	3811.322701	1.731635	-0.076915	3.553756
215.871189	3822.351360	1.736640	-0.076985	3.558302
216.233319	3833.355773	1.741644	-0.077055	3.562833
216.352501	3844.402718	1.746649	-0.077081	3.567349
216.648549	3855.385056	1.751654	-0.077139	3.571852
216.927210	3866.403068	1.756658	-0.077194	3.576362
217.405038	3877.400609	1.761663	-0.077286	3.580880
217.776504	3888.442341	1.766668	-0.077359	3.585398
218.079778	3899.445525	1.771673	-0.077418	3.589888
218.464478	3910.466604	1.776677	-0.077493	3.594387
218.855239	3921.484771	1.781682	-0.077569	3.598881
219.033036	3932.537924	1.786687	-0.077605	3.603360
219.385581	3943.516845	1.791692	-0.077674	3.607822
219.631141	3954.540315	1.796696	-0.077723	3.612285
219.910687	3965.537575	1.801701	-0.077778	3.616736
220.209513	3976.562994	1.806706	-0.077837	3.621195
220.506390	3987.587205	1.811710	-0.077895	3.625647
220.897467	3998.582477	1.816715	-0.077972	3.630092
221.279274	4009.608856	1.821720	-0.078046	3.634543
221.583862	4020.641248	1.826725	-0.078106	3.638983
222.080557	4031.623627	1.831729	-0.078202	3.643417
222.450543	4042.683641	1.836734	-0.078274	3.647864
222.551778	4053.678017	1.841739	-0.078296	3.652251
222.855035	4064.694107	1.846744	-0.078355	3.656663
223.103035	4075.700459	1.851748	-0.078404	3.661059
223.408452	4086.734408	1.856753	-0.078465	3.665467
223.557834	4097.768212	1.861758	-0.078495	3.669853
223.819004	4108.802006	1.866762	-0.078547	3.674246
224.136956	4119.832873	1.871767	-0.078609	3.678638
224.273200	4130.854026	1.876772	-0.078638	3.683002
224.615946	4141.851367	1.881777	-0.078705	3.687373
224.866501	4152.851871	1.886781	-0.078754	3.691730
225.284490	4163.863493	1.891786	-0.078836	3.696104
225.240978	4174.912601	1.896791	-0.078830	3.700440
225.630182	4185.908888	1.901795	-0.078906	3.704794
225.893150	4196.919983	1.906800	-0.078958	3.709137
226.126238	4207.938358	1.911805	-0.079004	3.713473
226.495470	4218.978664	1.916810	-0.079077	3.717827
226.768211	4229.971496	1.921814	-0.079130	3.722148
227.145238	4240.975340	1.926819	-0.079204	3.726478
227.449398	4251.977362	1.931824	-0.079264	3.730795
227.640060	4263.033564	1.936829	-0.079302	3.735117
227.965279	4274.014400	1.941833	-0.079366	3.739418
228.198606	4285.067899	1.946838	-0.079412	3.743733
228.639852	4296.048143	1.951843	-0.079498	3.748035
228.769476	4307.101659	1.956847	-0.079525	3.752329
229.237777	4318.087967	1.961852	-0.079616	3.756627
