Wed Nov 23 18:47:16 2022

Number of Points = 2200
Depth (nm)	Load (µN)	Time (s)	Depth (V)	Load (V)
-0.960043	1.342337	0.000000	0.070807	0.840284
0.000000	6.927225	0.005005	0.070625	0.850706
1.398417	15.481305	0.010009	0.070361	0.866379
3.125436	25.752509	0.015014	0.070034	0.884860
4.663663	36.752850	0.020019	0.069743	0.904042
5.914331	47.991387	0.025024	0.069505	0.923035
6.755463	59.310126	0.030028	0.069344	0.941530
8.545131	70.313158	0.035033	0.069006	0.959725
10.166209	81.512276	0.040038	0.068699	0.977782
12.074246	92.670702	0.045043	0.068338	0.995607
13.486273	103.933899	0.050047	0.068070	1.013002
15.420214	115.025419	0.055052	0.067705	1.030133
16.880862	126.304236	0.060057	0.067428	1.046999
18.274890	137.495086	0.065061	0.067164	1.063440
19.361907	148.732265	0.070066	0.066957	1.079538
20.755503	159.817953	0.075071	0.066693	1.095346
22.042117	170.983893	0.080076	0.066448	1.110982
23.434226	182.092641	0.085080	0.066184	1.126376
24.557614	193.290164	0.090085	0.065971	1.141549
25.877858	204.385779	0.095090	0.065720	1.156484
27.007752	215.518947	0.100094	0.065506	1.171186
28.002643	226.690812	0.105099	0.065316	1.185692
29.057016	237.803295	0.110104	0.065116	1.199975
30.201354	248.865640	0.115109	0.064898	1.214069
31.348514	259.996413	0.120113	0.064680	1.228084
32.579239	271.080094	0.125118	0.064446	1.241920
33.698624	282.178103	0.130123	0.064234	1.255572
34.740446	293.306603	0.135128	0.064035	1.269078
35.983024	304.371262	0.140132	0.063800	1.282453
37.205059	315.460512	0.145137	0.063568	1.295708
38.044093	326.674381	0.150142	0.063407	1.308811
39.067785	337.691639	0.155146	0.063212	1.321639
40.117516	348.736230	0.160151	0.063013	1.334384
41.016355	359.883059	0.165156	0.062841	1.347059
41.706239	370.981300	0.170161	0.062709	1.359481
42.682959	382.014364	0.175165	0.062523	1.371831
43.330665	393.160312	0.180170	0.062399	1.384064
44.066185	404.211182	0.185175	0.062258	1.396122
44.585829	415.316971	0.190180	0.062158	1.408051
45.290226	426.351593	0.195184	0.062023	1.419876
45.948716	437.441802	0.200189	0.061897	1.431643
46.764970	448.463014	0.205194	0.061741	1.443301
47.787723	459.502714	0.210198	0.061546	1.454961
48.515845	470.643674	0.215203	0.061407	1.466521
49.101178	481.695412	0.220208	0.061294	1.477850
49.696495	492.765423	0.225213	0.061180	1.489114
50.280787	503.837022	0.230217	0.061067	1.500291
50.934011	514.879796	0.235222	0.060942	1.511381
51.407611	525.967820	0.240227	0.060850	1.522371
51.972757	537.009784	0.245232	0.060742	1.533270
52.645280	548.064476	0.250236	0.060613	1.544140
53.051317	559.129790	0.255241	0.060534	1.554853
53.762158	570.147530	0.260246	0.060398	1.565551
54.383421	581.217197	0.265250	0.060278	1.576194
54.867736	592.302619	0.270255	0.060185	1.586735
55.326227	603.354378	0.275260	0.060096	1.597166
55.810994	614.392720	0.280265	0.060002	1.607525
56.456162	625.452419	0.285269	0.059879	1.617890
56.829182	636.498533	0.290274	0.059806	1.628088
57.370713	647.547501	0.295279	0.059701	1.638279
58.017985	658.569173	0.300283	0.059577	1.648416
58.670749	669.624752	0.305288	0.059452	1.658522
59.105881	680.687681	0.310293	0.059368	1.668506
59.600433	691.757449	0.315298	0.059272	1.678454
60.091458	702.761552	0.320302	0.059177	1.688284
60.648696	713.846613	0.325307	0.059070	1.698149
60.994729	724.874236	0.330312	0.059002	1.707841
61.935111	735.863532	0.335317	0.058823	1.717627
62.328719	746.970027	0.340321	0.058746	1.727292
62.990870	757.984911	0.345326	0.058620	1.736905
63.597343	769.013387	0.350331	0.058503	1.746461
64.012023	780.109692	0.355335	0.058422	1.755964
64.493520	791.123433	0.360340	0.058329	1.765366
65.231247	802.156738	0.365345	0.058188	1.774810
65.671939	813.202824	0.370350	0.058103	1.784127
66.350492	824.219279	0.375354	0.057973	1.793440
66.886076	835.282780	0.380359	0.057869	1.802702
67.415617	846.335587	0.385364	0.057767	1.811907
67.953640	857.344055	0.390369	0.057664	1.821030
68.568038	868.395053	0.395373	0.057546	1.830164
68.904470	879.468779	0.400378	0.057480	1.839193
69.577980	890.465034	0.405383	0.057351	1.848209
70.045307	901.539519	0.410387	0.057260	1.857187
70.602516	912.567267	0.415392	0.057153	1.866108
71.027717	923.590378	0.420397	0.057070	1.874947
71.582556	934.622116	0.425402	0.056964	1.883787
71.989169	945.683963	0.430406	0.056885	1.892568
72.415277	956.709743	0.435411	0.056802	1.901286
72.834454	967.747027	0.440416	0.056721	1.909971
73.143130	978.813623	0.445421	0.056660	1.918609
73.573664	989.813896	0.450425	0.056576	1.927190
74.122100	1000.851033	0.455430	0.056471	1.935792
74.383134	1011.889451	0.460435	0.056419	1.944281
74.831290	1022.932902	0.465439	0.056332	1.952786
75.222316	1033.947209	0.470444	0.056256	1.961217
75.724243	1045.004041	0.475449	0.056159	1.969673
76.164658	1056.022650	0.480454	0.056074	1.978047
76.540967	1067.078780	0.485458	0.056000	1.986398
76.741155	1078.126448	0.490463	0.055960	1.994662
77.197245	1089.126461	0.495468	0.055872	2.002922
77.792542	1100.133380	0.500472	0.055757	2.011188
78.174971	1111.200866	0.505477	0.055683	2.019411
78.494421	1122.239460	0.510482	0.055620	2.027563
78.923875	1133.270753	0.515487	0.055537	2.035705
79.246795	1144.279962	0.520491	0.055474	2.043771
79.678804	1155.324921	0.525496	0.055390	2.051859
80.174070	1166.327241	0.530501	0.055294	2.059899
80.669543	1177.368892	0.535506	0.055198	2.067937
81.189148	1188.405496	0.540510	0.055098	2.075945
81.721033	1199.435597	0.545515	0.054996	2.083921
82.016082	1210.485744	0.550520	0.054938	2.091823
82.354815	1221.529462	0.555524	0.054871	2.099701
82.765060	1232.499322	0.560529	0.054792	2.107514
83.039986	1243.589615	0.565534	0.054737	2.115351
83.304369	1254.591884	0.570539	0.054685	2.123095
83.764528	1265.621291	0.575543	0.054596	2.130876
84.173329	1276.641650	0.580548	0.054516	2.138609
84.574347	1287.668632	0.585553	0.054438	2.146318
85.068233	1298.692224	0.590558	0.054343	2.154018
85.332084	1309.743407	0.595562	0.054291	2.161656
85.673907	1320.769537	0.600567	0.054224	2.169268
86.187225	1331.783406	0.605572	0.054125	2.176884
86.700267	1342.790318	0.610576	0.054026	2.184469
87.126876	1353.849668	0.615581	0.053943	2.192043
87.532820	1364.847560	0.620586	0.053864	2.199545
88.095866	1375.884989	0.625591	0.053756	2.207083
88.311524	1386.951377	0.630595	0.053713	2.214536
88.669522	1397.954745	0.635600	0.053643	2.221954
89.043324	1408.980088	0.640605	0.053570	2.229366
89.445462	1420.005402	0.645610	0.053492	2.236759
89.792188	1431.039867	0.650614	0.053424	2.244121
90.164163	1442.050669	0.655619	0.053351	2.251449
90.502544	1453.105448	0.660624	0.053285	2.258775
90.923209	1464.098341	0.665628	0.053203	2.266054
91.506407	1475.112703	0.670633	0.053091	2.273360
91.928849	1486.158543	0.675638	0.053009	2.280627
92.077461	1497.204152	0.680643	0.052979	2.287811
92.534464	1508.221463	0.685647	0.052890	2.295022
92.889727	1519.228935	0.690652	0.052821	2.302181
93.225704	1530.273071	0.695657	0.052755	2.309338
93.492608	1541.296322	0.700661	0.052702	2.316444
93.799385	1552.323923	0.705666	0.052642	2.323539
94.125862	1563.336885	0.710671	0.052578	2.330608
94.555935	1574.371351	0.715676	0.052495	2.337690
94.787134	1585.402826	0.720680	0.052448	2.344708
95.258749	1596.399390	0.725685	0.052357	2.351733
95.447652	1607.449120	0.730690	0.052319	2.358711
95.823924	1618.453851	0.735695	0.052246	2.365679
96.161519	1629.493163	0.740699	0.052180	2.372640
96.567871	1640.497746	0.745704	0.052101	2.379573
96.909515	1651.541585	0.750709	0.052034	2.386497
97.171499	1662.588757	0.755713	0.051982	2.393387
97.427164	1673.579061	0.760718	0.051931	2.400220
97.794231	1684.604778	0.765723	0.051860	2.407079
98.205815	1695.643782	0.770728	0.051780	2.413934
98.587015	1706.637671	0.775732	0.051705	2.420737
98.794142	1717.686976	0.780737	0.051664	2.427519
99.316633	1728.684504	0.785742	0.051563	2.434314
99.495120	1739.746804	0.790747	0.051527	2.441060
99.685286	1750.765365	0.795751	0.051488	2.447764
100.058734	1761.762688	0.800756	0.051416	2.454473
100.328358	1772.812691	0.805761	0.051362	2.461174
100.710071	1783.792488	0.810765	0.051288	2.467837
101.179770	1794.842224	0.815770	0.051197	2.474541
101.457975	1805.870937	0.820775	0.051142	2.481177
101.816334	1816.877191	0.825780	0.051072	2.487798
102.054208	1827.932806	0.830784	0.051025	2.494406
102.597457	1838.900987	0.835789	0.050920	2.501005
103.087917	1849.939393	0.840794	0.050825	2.507617
103.311624	1860.993488	0.845799	0.050781	2.514169
103.621362	1871.984420	0.850803	0.050720	2.520684
104.155908	1883.007071	0.855808	0.050617	2.527243
104.522057	1894.039086	0.860813	0.050545	2.533759
104.983187	1905.062293	0.865817	0.050456	2.540270
105.254445	1916.075599	0.870822	0.050402	2.546724
105.650065	1927.115029	0.875827	0.050326	2.553199
106.003326	1938.122959	0.880832	0.050257	2.559632
106.361608	1949.147980	0.885836	0.050187	2.566059
106.799719	1960.178667	0.890841	0.050102	2.572488
107.082099	1971.255340	0.895846	0.050046	2.578899
107.363003	1982.208963	0.900850	0.049990	2.585223
107.857976	1993.235598	0.905855	0.049895	2.591612
108.076074	2004.265270	0.910860	0.049851	2.597937
108.448853	2015.277691	0.915865	0.049779	2.604264
108.654402	2026.301594	0.920869	0.049737	2.610552
109.356476	2037.283859	0.925874	0.049603	2.616892
109.719606	2048.337988	0.930879	0.049532	2.623195
110.001203	2059.338121	0.935884	0.049476	2.629438
110.422165	2070.342499	0.940888	0.049395	2.635693
111.006006	2081.381550	0.945893	0.049282	2.641982
111.239000	2092.411719	0.950898	0.049236	2.648188
111.676159	2103.416169	0.955902	0.049151	2.654402
111.952311	2114.444334	0.960907	0.049097	2.660586
112.437565	2125.447754	0.965912	0.049003	2.666778
112.760201	2136.495232	0.970917	0.048940	2.672952
113.245301	2147.478033	0.975921	0.048846	2.679104
113.701984	2158.521827	0.980926	0.048757	2.685271
114.021128	2169.555078	0.985931	0.048695	2.691394
114.423918	2180.560030	0.990936	0.048616	2.697501
114.787413	2191.574339	0.995940	0.048546	2.703593
115.181413	2202.600887	1.000945	0.048469	2.709683
115.554350	2213.630732	1.005950	0.048396	2.715758
116.013006	2224.637429	1.010954	0.048307	2.721821
116.279647	2235.682002	1.015959	0.048255	2.727858
116.761226	2246.673265	1.020964	0.048162	2.733889
117.150673	2257.702800	1.025969	0.048086	2.739912
117.639253	2268.707942	1.030973	0.047991	2.745925
118.069355	2279.759699	1.035978	0.047908	2.751940
118.527476	2290.738261	1.040983	0.047819	2.757908
118.856132	2301.794057	1.045988	0.047755	2.763882
119.296969	2312.808608	1.050992	0.047669	2.769839
119.585282	2323.821316	1.055997	0.047613	2.775758
120.077052	2334.851821	1.061002	0.047518	2.781707
120.508738	2345.846435	1.066006	0.047434	2.787614
121.124927	2356.860399	1.071011	0.047315	2.793549
121.258933	2367.922454	1.076016	0.047288	2.799418
121.716567	2378.915304	1.081021	0.047199	2.805290
122.184107	2389.966084	1.086025	0.047108	2.811183
122.511712	2400.951470	1.091030	0.047044	2.817006
122.855891	2411.985846	1.096035	0.046977	2.822845
123.339551	2422.995987	1.101039	0.046884	2.828682
123.551255	2434.024638	1.106044	0.046841	2.834472
124.134763	2445.020830	1.111049	0.046729	2.840294
124.293214	2456.097403	1.116054	0.046696	2.846077
124.782673	2467.066549	1.121058	0.046602	2.851845
125.275207	2478.070223	1.126063	0.046507	2.857620
125.582335	2489.127410	1.131068	0.046446	2.863382
125.939098	2500.161007	1.136073	0.046377	2.869127
126.056606	2511.156092	1.141077	0.046352	2.874803
126.390527	2522.201318	1.146082	0.046286	2.880528
126.604887	2533.187421	1.151087	0.046244	2.886192
127.076746	2544.255486	1.156091	0.046152	2.891928
127.246378	2555.211815	1.161096	0.046118	2.897547
127.782589	2566.234124	1.166101	0.046014	2.903247
128.197082	2577.274877	1.171106	0.045934	2.908925
128.550960	2588.287912	1.176110	0.045865	2.914569
128.835922	2599.298150	1.181115	0.045809	2.920190
129.189537	2610.333052	1.186120	0.045739	2.925823
129.552699	2621.363802	1.191125	0.045669	2.931445
129.935825	2632.336211	1.196129	0.045594	2.937029
130.178338	2643.383400	1.201134	0.045546	2.942619
130.510208	2654.406588	1.206139	0.045481	2.948199
130.778138	2665.420583	1.211143	0.045428	2.953755
131.100265	2676.459779	1.216148	0.045365	2.959321
131.343922	2687.446870	1.221153	0.045316	2.964838
131.672700	2698.509209	1.226158	0.045252	2.970396
131.820309	2709.487241	1.231162	0.045221	2.975874
132.338448	2720.512630	1.236167	0.045121	2.981420
132.575726	2731.526768	1.241172	0.045074	2.986909
132.991055	2742.544898	1.246177	0.044993	2.992416
133.254096	2753.559494	1.251181	0.044941	2.997889
133.656173	2764.592530	1.256186	0.044863	3.003381
133.879365	2775.603524	1.261191	0.044819	3.008826
133.999202	2786.665858	1.266195	0.044793	3.014271
134.439395	2797.597021	1.271200	0.044708	3.019689
134.844339	2808.663109	1.276205	0.044629	3.025158
135.106876	2819.685515	1.281210	0.044577	3.030574
135.228426	2830.731122	1.286214	0.044552	3.035972
135.558623	2841.702460	1.291219	0.044487	3.041354
135.945215	2852.727568	1.296224	0.044412	3.046761
136.301137	2863.748333	1.301228	0.044342	3.052152
136.700989	2874.752578	1.306233	0.044265	3.057531
137.060286	2885.776465	1.311238	0.044194	3.062905
137.312516	2896.828075	1.316243	0.044144	3.068267
137.629701	2907.809775	1.321247	0.044082	3.073595
138.029738	2918.851265	1.326252	0.044004	3.078955
138.355550	2929.836753	1.331257	0.043940	3.084268
138.789358	2940.897573	1.336262	0.043856	3.089622
138.949956	2951.883272	1.341266	0.043823	3.094893
139.233284	2962.911074	1.346271	0.043768	3.100193
139.537349	2973.925652	1.351276	0.043708	3.105479
139.796920	2984.969223	1.356280	0.043656	3.110765
140.029176	2995.947743	1.361285	0.043610	3.116006
140.877741	3006.932977	1.366290	0.043448	3.121328
141.654442	3017.963072	1.371295	0.043300	3.126652
141.933659	3029.033176	1.376299	0.043244	3.131917
142.144048	3040.033755	1.381304	0.043202	3.137130
142.689207	3051.031967	1.386309	0.043097	3.142379
142.881995	3062.092961	1.391314	0.043058	3.147601
143.324991	3073.066324	1.396318	0.042973	3.152807
143.643674	3084.114830	1.401323	0.042910	3.158023
143.711943	3095.130384	1.406328	0.042894	3.163180
144.137579	3106.138932	1.411332	0.042812	3.168374
144.487057	3117.156771	1.416337	0.042744	3.173554
144.854129	3128.159612	1.421342	0.042672	3.178721
145.328112	3139.193913	1.426347	0.042580	3.183908
145.622928	3150.203974	1.431351	0.042522	3.189051
146.005654	3161.223354	1.436356	0.042448	3.194202
146.428841	3172.236283	1.441361	0.042366	3.199347
146.871936	3183.253457	1.446366	0.042280	3.204488
147.087545	3194.297963	1.451370	0.042237	3.209604
147.146766	3205.293631	1.456375	0.042223	3.214667
147.527033	3216.305384	1.461380	0.042149	3.219773
147.903429	3227.315001	1.466384	0.042075	3.224869
148.312680	3238.348607	1.471389	0.041996	3.229972
148.590967	3249.354562	1.476394	0.041941	3.235037
148.810953	3260.392172	1.481399	0.041897	3.240101
149.156044	3271.404962	1.486403	0.041829	3.245162
149.486785	3282.397527	1.491408	0.041764	3.250204
149.871060	3293.425097	1.496413	0.041690	3.255261
150.369624	3304.429708	1.501417	0.041593	3.260315
150.592424	3315.462224	1.506422	0.041549	3.265337
151.136632	3326.472102	1.511427	0.041444	3.270383
151.577530	3337.499433	1.516432	0.041359	3.275416
151.982782	3348.489901	1.521436	0.041280	3.280420
152.263254	3359.534716	1.526441	0.041224	3.285424
152.620128	3370.562255	1.531446	0.041155	3.290423
152.885964	3381.567476	1.536451	0.041102	3.295392
153.144170	3392.581989	1.541455	0.041051	3.300357
153.316918	3403.600010	1.546460	0.041016	3.305305
153.802657	3414.590937	1.551465	0.040922	3.310273
153.961260	3425.650722	1.556469	0.040889	3.315223
154.267661	3436.647920	1.561474	0.040829	3.320156
154.631643	3447.687588	1.566479	0.040758	3.325109
155.007594	3458.660412	1.571484	0.040685	3.330025
155.477735	3469.690082	1.576488	0.040594	3.334971
155.768000	3480.721213	1.581493	0.040537	3.339888
156.064915	3491.735887	1.586498	0.040478	3.344791
156.430432	3502.735566	1.591503	0.040407	3.349689
156.715650	3513.768730	1.596507	0.040351	3.354584
157.288533	3524.759077	1.601512	0.040241	3.359489
157.546237	3535.819399	1.606517	0.040189	3.364379
157.968170	3546.817008	1.611521	0.040108	3.369254
158.263684	3557.829453	1.616526	0.040049	3.374113
158.206706	3568.877900	1.621531	0.040057	3.378937
158.537708	3579.850237	1.626536	0.039993	3.383768
158.972401	3590.861780	1.631540	0.039908	3.388623
159.503505	3601.891922	1.636545	0.039806	3.393490
159.802078	3612.911579	1.641550	0.039747	3.398317
160.109660	3623.931000	1.646555	0.039687	3.403138
160.470119	3634.950843	1.651559	0.039616	3.407959
160.832134	3645.953730	1.656564	0.039546	3.412766
161.319314	3656.956348	1.661569	0.039452	3.417581
161.534877	3668.005791	1.666573	0.039408	3.422377
161.862748	3679.016477	1.671578	0.039344	3.427163
162.189381	3690.028699	1.676583	0.039280	3.431942
162.349505	3701.058523	1.681588	0.039247	3.436703
162.732673	3712.049155	1.686592	0.039173	3.441466
163.151362	3723.081971	1.691597	0.039091	3.446245
163.283975	3734.116342	1.696602	0.039064	3.450985
163.520285	3745.095652	1.701606	0.039017	3.455706
163.648650	3756.138344	1.706611	0.038990	3.460435
163.929397	3767.131460	1.711616	0.038934	3.465155
164.486447	3778.161929	1.716621	0.038827	3.469916
164.761690	3789.179201	1.721625	0.038773	3.474632
165.174862	3800.186969	1.726630	0.038693	3.479354
165.504538	3811.208731	1.731635	0.038628	3.484065
165.873768	3822.231168	1.736640	0.038556	3.488775
166.118007	3833.230749	1.741644	0.038507	3.493455
166.437794	3844.269724	1.746649	0.038445	3.498153
166.645043	3855.256135	1.751654	0.038403	3.502810
167.064221	3866.302483	1.756658	0.038322	3.507510
166.996536	3877.308458	1.761663	0.038332	3.512131
167.331135	3888.332808	1.766668	0.038266	3.516799
167.688453	3899.319745	1.771673	0.038196	3.521449
168.182342	3910.350692	1.776677	0.038101	3.526126
168.333426	3921.404940	1.781682	0.038070	3.530767
168.372436	3932.389199	1.786687	0.038060	3.535361
168.759219	3943.368919	1.791692	0.037985	3.539985
169.201171	3954.424858	1.796696	0.037899	3.544642
169.612700	3965.416159	1.801701	0.037819	3.549262
169.747199	3976.479154	1.806706	0.037791	3.553875
170.200124	3987.454688	1.811710	0.037703	3.558481
170.521990	3998.484805	1.816715	0.037640	3.563090
170.900484	4009.490059	1.821720	0.037566	3.567688
171.122144	4020.509845	1.826725	0.037522	3.572268
171.528779	4031.516083	1.831729	0.037443	3.576858
171.765400	4042.546226	1.836734	0.037396	3.581433
172.125110	4053.552285	1.841739	0.037326	3.586005
172.326560	4064.579529	1.846744	0.037285	3.590563
172.594384	4075.575023	1.851748	0.037232	3.595109
172.884097	4086.620695	1.856753	0.037175	3.599673
173.382786	4097.628508	1.861758	0.037079	3.604238
173.767401	4108.704146	1.866762	0.037004	3.608812
174.074693	4119.696365	1.871767	0.036944	3.613338
174.481538	4130.741132	1.876772	0.036864	3.617890
174.752961	4141.708309	1.881777	0.036811	3.622391
175.162619	4152.758438	1.886781	0.036731	3.626934
175.361696	4163.771265	1.891786	0.036691	3.631434
175.591397	4174.795178	1.896791	0.036645	3.635936
175.775349	4185.784266	1.901795	0.036608	3.640413
176.070337	4196.811578	1.906800	0.036550	3.644912
176.392052	4207.807869	1.911805	0.036487	3.649396
176.815540	4218.849017	1.916810	0.036405	3.653903
177.207168	4229.850683	1.921814	0.036328	3.658386
177.382449	4240.899301	1.926819	0.036293	3.662858
177.712832	4251.877993	1.931824	0.036228	3.667314
177.989629	4262.910087	1.936829	0.036173	3.671779
178.239526	4273.926385	1.941833	0.036124	3.676230
178.684958	4284.935991	1.946838	0.036038	3.680694
178.990666	4295.946939	1.951843	0.035977	3.685138
179.312136	4306.981366	1.956847	0.035914	3.689587
179.408481	4317.967261	1.961852	0.035894	3.693988
179.874598	4329.003339	1.966857	0.035803	3.698443
180.241482	4340.000743	1.971862	0.035732	3.702866
180.587082	4351.051697	1.976866	0.035664	3.707303
180.723018	4362.030335	1.981871	0.035636	3.711684
181.061056	4373.068450	1.986876	0.035570	3.716105
181.462487	4384.049181	1.991881	0.035492	3.720503
181.955094	4395.095206	1.996885	0.035397	3.724932
182.254724	4406.082645	2.001890	0.035338	3.729313
182.466337	4417.140873	2.006895	0.035295	3.733707
182.655515	4428.139036	2.011899	0.035257	3.738070
