Wed Nov 23 19:44:20 2022

Number of Points = 2200
Depth (nm)	Load (µN)	Time (s)	Depth (V)	Load (V)
-1.533928	1.322837	0.000000	0.002169	1.052067
0.000000	7.835144	0.005005	0.001879	1.061906
1.268447	17.191972	0.010009	0.001639	1.075412
2.392121	27.936446	0.015014	0.001425	1.090548
3.262754	39.035168	0.020019	0.001259	1.105823
4.093450	50.167313	0.025024	0.001101	1.120913
4.964161	61.292989	0.030028	0.000935	1.135813
5.349878	72.491267	0.035033	0.000859	1.150385
6.047946	83.574400	0.040038	0.000726	1.164773
6.988830	94.566930	0.045043	0.000546	1.178984
10.871265	105.127853	0.050047	-0.000185	1.193821
12.460897	116.602338	0.055052	-0.000486	1.208562
13.700734	127.863261	0.060057	-0.000721	1.222714
14.937674	138.972438	0.065061	-0.000956	1.236522
16.116693	150.098656	0.070066	-0.001180	1.250171
17.015797	161.240677	0.075071	-0.001352	1.263572
18.211415	172.280523	0.080076	-0.001579	1.276839
19.313466	183.398940	0.085080	-0.001788	1.290019
20.322569	194.555055	0.090085	-0.001980	1.303069
21.547584	205.558109	0.095090	-0.002213	1.315906
22.391344	216.695060	0.100094	-0.002374	1.328613
23.518106	227.728823	0.105099	-0.002588	1.341199
24.805810	238.783621	0.110104	-0.002832	1.353753
25.734271	249.903734	0.115109	-0.003009	1.366121
27.174839	260.916534	0.120113	-0.003282	1.378461
28.314614	272.028576	0.125118	-0.003499	1.390681
29.345749	283.123910	0.130123	-0.003695	1.402734
30.352834	294.206271	0.135128	-0.003887	1.414662
31.305011	305.299497	0.140132	-0.004068	1.426480
32.255155	316.345550	0.145137	-0.004249	1.438152
32.938889	327.489207	0.150142	-0.004380	1.449731
33.973048	338.460261	0.155146	-0.004577	1.461170
34.990167	349.543202	0.160151	-0.004771	1.472626
35.635342	360.666643	0.165156	-0.004895	1.483901
36.868714	371.615738	0.170161	-0.005129	1.495126
37.661680	382.761311	0.175165	-0.005280	1.506305
38.521215	393.828013	0.180170	-0.005444	1.517348
39.065821	404.918179	0.185175	-0.005549	1.528224
40.012238	415.919838	0.190180	-0.005730	1.539076
40.985751	426.952698	0.195184	-0.005915	1.549890
41.752919	438.070456	0.200189	-0.006062	1.560639
42.430514	449.123433	0.205194	-0.006192	1.571224
42.922492	460.215672	0.210198	-0.006287	1.581713
43.702991	471.204772	0.215203	-0.006436	1.592132
44.604537	482.247283	0.220208	-0.006608	1.602571
45.158013	493.345748	0.225213	-0.006714	1.612880
45.904691	504.408088	0.230217	-0.006857	1.623154
46.306732	515.464931	0.235222	-0.006935	1.633247
47.119663	526.458419	0.240227	-0.007091	1.643351
47.845000	537.508418	0.245232	-0.007229	1.653416
48.476852	548.584097	0.250236	-0.007351	1.663413
48.910614	559.658430	0.255241	-0.007435	1.673288
49.402995	570.706167	0.260246	-0.007530	1.683099
49.770377	581.759430	0.265250	-0.007602	1.692819
50.373826	592.762784	0.270255	-0.007718	1.702513
50.830144	603.826279	0.275260	-0.007806	1.712158
51.300218	614.885576	0.280265	-0.007897	1.721750
51.645676	625.942803	0.285269	-0.007965	1.731249
52.028432	636.969312	0.290274	-0.008039	1.740682
52.485650	647.998414	0.295279	-0.008128	1.750087
52.810939	659.074461	0.300283	-0.008191	1.759443
53.182543	670.100335	0.305288	-0.008264	1.768721
53.674977	681.132965	0.310293	-0.008359	1.777991
54.043675	692.161627	0.315298	-0.008431	1.787173
58.509443	702.567666	0.320302	-0.009271	1.796975
59.227473	714.215393	0.325307	-0.009409	1.806662
60.195513	725.186818	0.330312	-0.009593	1.815821
60.651655	736.319913	0.335317	-0.009682	1.824920
61.293613	747.327592	0.340321	-0.009805	1.833925
62.250032	758.329052	0.345326	-0.009987	1.842969
62.791153	769.442028	0.350331	-0.010091	1.851941
63.233236	780.467517	0.355335	-0.010177	1.860774
63.880423	791.484480	0.360340	-0.010301	1.869614
64.651313	802.495405	0.365345	-0.010449	1.878441
65.449060	813.537502	0.370350	-0.010601	1.887258
66.139629	824.597103	0.375354	-0.010733	1.896018
66.693561	835.647654	0.380359	-0.010840	1.904695
67.417607	846.621936	0.385364	-0.010979	1.913318
68.183366	857.699368	0.390369	-0.011125	1.921992
68.576014	868.760026	0.395373	-0.011201	1.930516
69.687993	879.698232	0.400378	-0.011413	1.939098
69.963605	890.840631	0.405383	-0.011467	1.947578
70.681901	901.828090	0.410387	-0.011605	1.956019
71.266487	912.859118	0.415392	-0.011717	1.964422
71.888552	923.926750	0.420397	-0.011837	1.972825
72.068301	934.998318	0.425402	-0.011873	1.981083
72.586548	945.965914	0.430406	-0.011973	1.989315
73.110156	957.003709	0.435411	-0.012074	1.997566
73.385599	968.105968	0.440416	-0.012128	2.005768
73.734290	979.095073	0.445421	-0.012197	2.013873
74.163534	990.117859	0.450425	-0.012280	2.021989
74.691841	1001.125660	0.455430	-0.012382	2.030086
75.726957	1012.089912	0.460435	-0.012579	2.038244
76.313016	1023.216396	0.465439	-0.012691	2.046376
77.034859	1034.220200	0.470444	-0.012830	2.054421
77.353645	1045.298448	0.475449	-0.012892	2.062389
77.996116	1056.284392	0.480454	-0.013015	2.070339
78.572655	1067.321299	0.485458	-0.013126	2.078279
78.968220	1078.403116	0.490463	-0.013203	2.086176
79.347523	1089.405935	0.495468	-0.013277	2.093984
79.697717	1100.443029	0.500472	-0.013346	2.101780
80.250805	1111.446416	0.505477	-0.013452	2.109571
80.729216	1122.484477	0.510482	-0.013545	2.117341
81.885346	1133.401972	0.515487	-0.013764	2.125157
82.450146	1144.558106	0.520491	-0.013873	2.132970
82.981948	1155.552669	0.525496	-0.013976	2.140636
83.460046	1166.590973	0.530501	-0.014068	2.148292
83.952128	1177.636337	0.535506	-0.014163	2.155929
84.420266	1188.662601	0.540510	-0.014254	2.163520
84.849513	1199.683108	0.545515	-0.014337	2.171071
85.488247	1210.693561	0.550520	-0.014459	2.178637
85.787025	1221.764391	0.555524	-0.014518	2.186140
86.300638	1232.771431	0.560529	-0.014617	2.193623
86.407182	1243.821034	0.565534	-0.014640	2.201018
87.137146	1254.797312	0.570539	-0.014780	2.208478
87.716844	1265.843908	0.575543	-0.014891	2.215926
88.076204	1276.879161	0.580548	-0.014961	2.223293
88.329724	1287.907617	0.585553	-0.015012	2.230607
88.919801	1298.925314	0.590558	-0.015125	2.237964
89.307040	1309.967718	0.595562	-0.015201	2.245269
89.808904	1320.978598	0.600567	-0.015298	2.252554
90.024172	1332.054298	0.605572	-0.015341	2.259795
90.546260	1343.017397	0.610576	-0.015441	2.267007
90.941795	1354.077721	0.615581	-0.015518	2.274231
91.447701	1365.058781	0.620586	-0.015616	2.281404
91.991389	1376.098726	0.625591	-0.015721	2.288601
92.552944	1387.132918	0.630595	-0.015829	2.295776
92.902083	1398.160961	0.635600	-0.015897	2.302878
93.453112	1409.173425	0.640605	-0.016003	2.309992
93.835891	1420.212761	0.645610	-0.016078	2.317065
94.238912	1431.238886	0.650614	-0.016156	2.324112
94.495424	1442.290657	0.655619	-0.016207	2.331123
94.926011	1453.266589	0.660624	-0.016290	2.338102
96.895582	1464.140282	0.665628	-0.016663	2.345315
97.295364	1475.345814	0.670633	-0.016740	2.352388
97.621062	1486.362897	0.675638	-0.016804	2.359307
98.301516	1497.357863	0.680643	-0.016935	2.366265
98.639531	1508.432852	0.685647	-0.017001	2.373182
99.227831	1519.407908	0.690652	-0.017114	2.380068
99.614552	1530.439651	0.695657	-0.017189	2.386928
100.405323	1541.460175	0.700661	-0.017340	2.393842
100.933639	1552.486342	0.705666	-0.017442	2.400687
101.201276	1563.549198	0.710671	-0.017495	2.407483
101.727921	1574.565848	0.715676	-0.017597	2.414283
101.978733	1585.568189	0.720680	-0.017647	2.421000
102.155106	1596.627443	0.725685	-0.017682	2.427719
102.546895	1607.624979	0.730690	-0.017759	2.434424
103.128275	1618.618672	0.735695	-0.017870	2.441145
103.765287	1629.633430	0.740699	-0.017993	2.447871
104.274041	1640.687618	0.745704	-0.018091	2.454577
104.697532	1651.716197	0.750709	-0.018173	2.461233
105.199685	1662.705159	0.755713	-0.018270	2.467863
105.913950	1673.757583	0.760718	-0.018407	2.474552
106.341964	1684.771333	0.765723	-0.018490	2.481146
106.769246	1695.823737	0.770728	-0.018573	2.487745
107.227916	1706.808996	0.775732	-0.018662	2.494293
107.606141	1717.866178	0.780737	-0.018735	2.500850
107.802102	1728.871276	0.785742	-0.018775	2.507325
108.425730	1739.877614	0.790747	-0.018894	2.513865
108.733550	1750.918059	0.795751	-0.018955	2.520348
109.195714	1761.944961	0.800756	-0.019044	2.526835
109.602742	1772.968751	0.805761	-0.019124	2.533294
109.987297	1783.971951	0.810765	-0.019198	2.539720
110.591136	1794.981889	0.815770	-0.019314	2.546174
110.893266	1806.049381	0.820775	-0.019374	2.552589
111.232042	1817.045793	0.825780	-0.019440	2.558953
111.708022	1828.069355	0.830784	-0.019532	2.565343
111.990600	1839.118328	0.835789	-0.019588	2.571695
112.347872	1850.174860	0.840794	-0.019658	2.578050
112.815845	1861.104085	0.845799	-0.019748	2.584337
113.412438	1872.153215	0.850803	-0.019863	2.590700
113.765060	1883.176789	0.855808	-0.019932	2.596988
114.141710	1894.211274	0.860813	-0.020005	2.603271
114.415179	1905.213338	0.865817	-0.020059	2.609503
114.835848	1916.237951	0.870822	-0.020141	2.615758
115.397112	1927.237076	0.875827	-0.020249	2.622010
115.925334	1938.284682	0.880832	-0.020351	2.628267
116.197580	1949.307571	0.885836	-0.020405	2.634451
116.649571	1960.316354	0.890841	-0.020492	2.640643
116.907036	1971.345511	0.895846	-0.020543	2.646798
117.217297	1982.402565	0.900850	-0.020604	2.652964
117.616353	1993.350973	0.905855	-0.020682	2.659070
118.263508	2004.402007	0.910860	-0.020806	2.665262
118.437530	2015.449121	0.915865	-0.020841	2.671356
118.750828	2026.461008	0.920869	-0.020903	2.677440
119.144234	2037.455262	0.925874	-0.020979	2.683514
119.834181	2048.456263	0.930879	-0.021112	2.689630
120.023875	2059.497041	0.935884	-0.021150	2.695667
120.447846	2070.502100	0.940888	-0.021232	2.701711
120.953570	2081.503680	0.945893	-0.021330	2.707753
121.263806	2092.570116	0.950898	-0.021391	2.713784
121.667394	2103.550995	0.955902	-0.021469	2.719771
122.048138	2114.595160	0.960907	-0.021543	2.725775
122.271166	2125.631616	0.965912	-0.021588	2.731735
122.869449	2136.601471	0.970917	-0.021703	2.737709
123.304336	2147.623331	0.975921	-0.021787	2.743671
123.660237	2158.669854	0.980926	-0.021857	2.749619
124.140912	2169.675823	0.985931	-0.021950	2.755554
124.646824	2180.707063	0.990936	-0.022047	2.761493
125.097292	2191.722786	0.995940	-0.022135	2.767402
125.563845	2202.723298	1.000945	-0.022225	2.773293
125.942398	2213.763393	1.005950	-0.022299	2.779178
126.476340	2224.771198	1.010954	-0.022402	2.785058
126.447880	2235.840042	1.015959	-0.022399	2.790866
127.157883	2246.802898	1.020964	-0.022535	2.796727
127.571468	2257.832184	1.025969	-0.022615	2.802562
128.040965	2268.858020	1.030973	-0.022706	2.808392
128.383461	2279.877147	1.035978	-0.022773	2.814186
128.647470	2290.926301	1.040983	-0.022825	2.819971
129.094407	2301.908058	1.045988	-0.022912	2.825738
129.341282	2312.969279	1.050992	-0.022961	2.831503
129.523631	2323.951683	1.055997	-0.022998	2.837205
130.126055	2334.965467	1.061002	-0.023114	2.842978
130.515037	2345.982588	1.066006	-0.023189	2.848707
130.980739	2357.017572	1.071011	-0.023279	2.854446
131.371611	2368.030673	1.076016	-0.023356	2.860150
131.938020	2379.031150	1.081021	-0.023465	2.865864
132.233449	2390.099006	1.086025	-0.023523	2.871558
132.672255	2401.085615	1.091030	-0.023608	2.877222
133.129956	2412.096591	1.096035	-0.023696	2.882890
133.621214	2423.131196	1.101039	-0.023791	2.888564
133.804970	2434.180439	1.106044	-0.023829	2.894186
134.170627	2445.171593	1.111049	-0.023900	2.899797
134.862336	2456.138669	1.116054	-0.024032	2.905434
135.802356	2467.174936	1.121058	-0.024211	2.911133
136.092780	2478.223182	1.126063	-0.024269	2.916728
136.626126	2489.239474	1.131068	-0.024372	2.922332
136.816487	2500.257754	1.136073	-0.024410	2.927875
137.228325	2511.281657	1.141077	-0.024490	2.933443
137.461925	2522.305333	1.146082	-0.024537	2.938974
138.036946	2533.300964	1.151087	-0.024647	2.944531
138.254948	2544.354032	1.156091	-0.024691	2.950053
138.458993	2555.364840	1.161096	-0.024732	2.955542
138.818943	2566.386385	1.166101	-0.024802	2.961049
139.274046	2577.376648	1.171106	-0.024890	2.966544
139.664965	2588.422434	1.176110	-0.024966	2.972047
139.970244	2599.413390	1.181115	-0.025026	2.977500
140.380523	2610.436420	1.186120	-0.025106	2.982974
140.880760	2621.473440	1.191125	-0.025203	2.988458
141.266761	2632.474388	1.196129	-0.025278	2.993898
141.565858	2643.510419	1.201134	-0.025337	2.999331
141.975634	2654.500190	1.206139	-0.025416	3.004749
142.413067	2665.553322	1.211143	-0.025501	3.010192
142.619142	2676.552927	1.216148	-0.025542	3.015565
142.969790	2687.579946	1.221153	-0.025611	3.020962
143.293239	2698.592617	1.226158	-0.025674	3.026339
143.777367	2709.603021	1.231162	-0.025768	3.031729
144.000894	2720.625945	1.236167	-0.025813	3.037077
144.263929	2731.655452	1.241172	-0.025865	3.042425
144.557071	2742.672915	1.246177	-0.025922	3.047761
144.726377	2753.708505	1.251181	-0.025957	3.053080
145.320905	2764.657751	1.256186	-0.026071	3.058408
145.824128	2775.697709	1.261191	-0.026168	3.063757
146.269145	2786.735532	1.266195	-0.026255	3.069088
146.660685	2797.755131	1.271200	-0.026331	3.074393
146.944411	2808.776245	1.276205	-0.026387	3.079674
147.337879	2819.782082	1.281210	-0.026463	3.084954
147.659632	2830.819212	1.286214	-0.026526	3.090230
148.096128	2841.813207	1.291219	-0.026611	3.095492
148.440432	2852.831140	1.296224	-0.026678	3.100744
148.736006	2863.857995	1.301228	-0.026737	3.105985
148.939685	2874.880453	1.306233	-0.026777	3.111201
149.222829	2885.900206	1.311238	-0.026833	3.116419
149.549271	2896.909997	1.316243	-0.026897	3.121629
150.006551	2907.934070	1.321247	-0.026986	3.126855
150.384376	2918.934933	1.326252	-0.027059	3.132050
150.602531	2929.979923	1.331257	-0.027103	3.137235
150.975877	2940.957000	1.336262	-0.027176	3.142402
151.471521	2951.997297	1.341266	-0.027272	3.147605
151.808943	2963.009871	1.346271	-0.027338	3.152766
152.138157	2974.056726	1.351276	-0.027402	3.157933
152.391219	2985.038979	1.356280	-0.027452	3.163051
152.805230	2996.080194	1.361285	-0.027533	3.168210
153.112622	3007.075454	1.366290	-0.027593	3.173325
153.454204	3018.107983	1.371295	-0.027660	3.178453
153.902438	3029.082130	1.376299	-0.027747	3.183560
154.367747	3040.158543	1.381304	-0.027837	3.188708
154.780887	3051.131507	1.386309	-0.027917	3.193794
155.131010	3062.182319	1.391314	-0.027986	3.198898
156.402613	3073.002465	1.396318	-0.028227	3.204011
159.256279	3084.138524	1.401323	-0.028765	3.209468
159.555242	3095.216529	1.406328	-0.028824	3.214553
160.072268	3106.238365	1.411332	-0.028924	3.219632
160.455869	3117.244401	1.416337	-0.028998	3.224679
160.706979	3128.307671	1.421342	-0.029048	3.229726
160.988585	3139.280991	1.426347	-0.029104	3.234729
161.150416	3150.317133	1.431351	-0.029137	3.239737
161.488176	3161.319920	1.436356	-0.029203	3.244745
161.914349	3172.355572	1.441361	-0.029286	3.249771
162.083974	3183.346221	1.446366	-0.029320	3.254736
162.441211	3194.384911	1.451370	-0.029390	3.259739
162.856155	3205.379098	1.456375	-0.029471	3.264721
163.265750	3216.408086	1.461380	-0.029550	3.269711
163.545464	3227.416680	1.466384	-0.029605	3.274668
164.083757	3238.456587	1.471389	-0.029709	3.279663
164.570050	3249.441070	1.476394	-0.029803	3.284620
164.820326	3260.495870	1.481399	-0.029853	3.289571
165.214795	3271.472365	1.486403	-0.029930	3.294497
165.678969	3282.522625	1.491408	-0.030019	3.299458
166.139521	3293.500724	1.496413	-0.030109	3.304379
166.399297	3304.556183	1.501417	-0.030160	3.309301
166.773862	3315.554772	1.506422	-0.030233	3.314205
167.083038	3326.577216	1.511427	-0.030294	3.319104
167.338135	3337.603178	1.516432	-0.030344	3.323990
167.803182	3348.622493	1.521436	-0.030434	3.328893
168.103709	3359.609625	1.526441	-0.030493	3.333753
168.555289	3370.638882	1.531446	-0.030581	3.338644
168.636450	3381.685695	1.536451	-0.030599	3.343489
168.988192	3392.691705	1.541455	-0.030668	3.348343
169.135427	3403.687820	1.546460	-0.030698	3.353160
169.588138	3414.717260	1.551465	-0.030786	3.358023
169.816096	3425.731475	1.556469	-0.030831	3.362844
170.144961	3436.747075	1.561474	-0.030896	3.367671
170.426478	3447.748871	1.566479	-0.030951	3.372479
170.913649	3458.767472	1.571484	-0.031045	3.377312
171.359071	3469.775020	1.576488	-0.031132	3.382129
171.720592	3480.827196	1.581493	-0.031202	3.386948
172.131510	3491.799126	1.586498	-0.031282	3.391731
172.695455	3502.844351	1.591503	-0.031390	3.396557
172.875491	3513.866071	1.596507	-0.031427	3.401320
173.042014	3524.893360	1.601512	-0.031461	3.406078
173.321104	3535.891831	1.606517	-0.031516	3.410829
173.709003	3546.891737	1.611521	-0.031592	3.415588
174.146767	3557.910321	1.616526	-0.031676	3.420354
174.620546	3568.942028	1.621531	-0.031768	3.425123
175.131281	3579.942719	1.626536	-0.031867	3.429876
175.620471	3590.968786	1.631540	-0.031961	3.434631
175.773544	3601.992565	1.636545	-0.031993	3.439338
176.394576	3613.000992	1.641550	-0.032112	3.444088
176.901773	3624.033765	1.646555	-0.032210	3.448828
177.240140	3635.029880	1.651559	-0.032276	3.453526
177.429530	3646.064554	1.656564	-0.032314	3.458216
177.750593	3657.062674	1.661569	-0.032377	3.462900
178.099455	3668.075021	1.666573	-0.032445	3.467587
178.571427	3679.096266	1.671578	-0.032537	3.472285
179.087263	3690.113443	1.676583	-0.032636	3.476980
179.493549	3701.128401	1.681588	-0.032715	3.481656
179.520247	3712.173741	1.686592	-0.032723	3.486294
179.976301	3723.152327	1.691597	-0.032811	3.490947
180.252945	3734.171801	1.696602	-0.032866	3.495590
180.667122	3745.195609	1.701606	-0.032946	3.500245
181.155045	3756.206167	1.706611	-0.033041	3.504896
181.485615	3767.240132	1.711616	-0.033105	3.509533
181.662199	3778.267050	1.716621	-0.033141	3.514143
182.017078	3789.279757	1.721625	-0.033211	3.518761
182.541891	3800.241622	1.726630	-0.033312	3.523371
183.043927	3811.304368	1.731635	-0.033409	3.528015
183.371936	3822.308533	1.736640	-0.033473	3.532608
183.665268	3833.320079	1.741644	-0.033531	3.537195
184.173483	3844.329771	1.746649	-0.033629	3.541798
184.963699	3855.332731	1.751654	-0.033780	3.546425
185.475760	3866.353688	1.756658	-0.033879	3.551021
185.810580	3877.407487	1.761663	-0.033944	3.555605
186.065152	3888.407712	1.766668	-0.033995	3.560153
186.305233	3899.426129	1.771673	-0.034042	3.564700
186.743558	3910.423181	1.776677	-0.034127	3.569255
187.053236	3921.459239	1.781682	-0.034188	3.573806
187.342105	3932.474711	1.786687	-0.034245	3.578340
187.690275	3943.488560	1.791692	-0.034313	3.582874
187.907290	3954.511874	1.796696	-0.034357	3.587392
188.169200	3965.506613	1.801701	-0.034409	3.591897
188.439939	3976.529173	1.806706	-0.034462	3.596409
188.967886	3987.529627	1.811710	-0.034564	3.600934
189.348391	3998.577462	1.816715	-0.034638	3.605457
189.679211	4009.588718	1.821720	-0.034703	3.609953
189.892954	4020.589495	1.826725	-0.034746	3.614427
190.510070	4031.600713	1.831729	-0.034864	3.618943
190.746313	4042.621101	1.836734	-0.034911	3.623417
191.274582	4053.652442	1.841739	-0.035013	3.627920
191.221568	4064.672380	1.846744	-0.035006	3.632351
191.587683	4075.681290	1.851748	-0.035077	3.636817
191.683125	4086.691450	1.856753	-0.035098	3.641249
191.973413	4097.744766	1.861758	-0.035155	3.645713
192.395480	4108.749137	1.866762	-0.035237	3.650166
192.697395	4119.787205	1.871767	-0.035296	3.654615
193.048947	4130.779838	1.876772	-0.035365	3.659045
193.388311	4141.837827	1.881777	-0.035431	3.663494
193.576768	4152.870755	1.886781	-0.035470	3.667913
193.919237	4163.831335	1.891786	-0.035537	3.672313
194.346682	4174.848337	1.896791	-0.035619	3.676739
194.854731	4185.865803	1.901795	-0.035718	3.681168
195.090283	4196.908255	1.906800	-0.035764	3.685574
195.322908	4207.902614	1.911805	-0.035811	3.689954
195.733600	4218.917552	1.916810	-0.035891	3.694356
196.119900	4229.927838	1.921814	-0.035966	3.698749
196.380327	4240.953401	1.926819	-0.036017	3.703129
196.515530	4252.015242	1.931824	-0.036046	3.707505
196.674871	4262.968235	1.936829	-0.036078	3.711836
196.889425	4274.004022	1.941833	-0.036121	3.716200
197.275899	4285.001346	1.946838	-0.036196	3.720561
197.662081	4296.041434	1.951843	-0.036272	3.724934
198.143330	4307.016913	1.956847	-0.036365	3.729286
198.398142	4318.081562	1.961852	-0.036415	3.733644
198.897079	4329.050174	1.966857	-0.036511	3.737985
199.203938	4340.104570	1.971862	-0.036572	3.742334
