Wed Nov 23 17:50:12 2022

Number of Points = 2200
Depth (nm)	Load (µN)	Time (s)	Depth (V)	Load (V)
-0.797742	1.581582	0.000000	-0.037573	1.155960
0.000000	8.407729	0.005005	-0.037724	1.164924
0.948597	17.869483	0.010009	-0.037904	1.177164
1.866692	28.657263	0.015014	-0.038079	1.190892
2.739528	39.719654	0.020019	-0.038246	1.204776
3.339099	50.865977	0.025024	-0.038361	1.218482
4.061311	61.944585	0.030028	-0.038499	1.232007
4.519157	73.101815	0.035033	-0.038588	1.245365
5.035041	84.180645	0.040038	-0.038688	1.258513
5.477617	95.275664	0.045043	-0.038773	1.271514
6.109461	106.345011	0.050047	-0.038895	1.284432
6.460390	117.484997	0.055052	-0.038963	1.297185
6.802555	128.626971	0.060057	-0.039030	1.309812
7.242458	139.639558	0.065061	-0.039115	1.322215
7.690705	150.693349	0.070066	-0.039202	1.334550
8.159714	161.773578	0.075071	-0.039293	1.346810
8.690779	172.843461	0.080076	-0.039395	1.358971
9.052762	183.939818	0.085080	-0.039466	1.370987
9.391956	195.038417	0.090085	-0.039533	1.382892
17.111313	204.113711	0.095090	-0.040983	1.395375
25.291897	216.059782	0.100094	-0.042521	1.410889
26.329882	227.948050	0.105099	-0.042719	1.423525
27.783014	239.110596	0.110104	-0.042994	1.435463
29.369604	250.124335	0.115109	-0.043295	1.447200
30.658082	261.277037	0.120113	-0.043539	1.458873
31.717299	272.343864	0.125118	-0.043741	1.470286
33.452960	283.335523	0.130123	-0.044069	1.481776
34.414045	294.494878	0.135128	-0.044252	1.493068
35.775914	305.508881	0.140132	-0.044511	1.504273
36.796535	316.627850	0.145137	-0.044705	1.515378
38.068042	327.658174	0.150142	-0.044946	1.526403
39.114640	338.732947	0.155146	-0.045145	1.537314
40.269921	349.776801	0.160151	-0.045365	1.548155
41.000507	360.922109	0.165156	-0.045505	1.558872
41.917579	371.903960	0.170161	-0.045679	1.569426
43.040035	382.980373	0.175165	-0.045893	1.580064
43.970403	394.032411	0.180170	-0.046070	1.590545
44.734114	405.114738	0.185175	-0.046216	1.600931
45.618619	416.150127	0.190180	-0.046385	1.611245
46.368339	427.235992	0.195184	-0.046528	1.621496
47.752075	438.168719	0.200189	-0.046791	1.631746
48.908529	449.210451	0.205194	-0.047010	1.641957
49.988841	460.328386	0.210198	-0.047216	1.652148
50.571566	471.445081	0.215203	-0.047328	1.662120
51.641339	482.392967	0.220208	-0.047531	1.672035
52.403847	493.520067	0.225213	-0.047677	1.681952
53.355164	504.497229	0.230217	-0.047858	1.691739
54.453433	515.580356	0.235222	-0.048067	1.701605
55.241291	526.627074	0.240227	-0.048218	1.711288
56.268061	537.636840	0.245232	-0.048413	1.720957
57.075662	548.695310	0.250236	-0.048567	1.730548
58.206966	559.705392	0.255241	-0.048782	1.740140
59.152436	570.778593	0.260246	-0.048963	1.749677
59.866282	581.843958	0.265250	-0.049099	1.759088
60.772446	592.896371	0.270255	-0.049272	1.768493
61.592927	603.906145	0.275260	-0.049429	1.777789
62.430884	614.970451	0.280265	-0.049589	1.787085
63.337076	625.982130	0.285269	-0.049761	1.796310
64.148871	637.034181	0.290274	-0.049917	1.805493
65.114922	648.055141	0.295279	-0.050101	1.814647
65.930407	659.127681	0.300283	-0.050256	1.823754
66.766294	670.145296	0.305288	-0.050416	1.832778
67.665310	681.197166	0.310293	-0.050587	1.841801
68.536775	692.224092	0.315298	-0.050754	1.850753
69.400919	703.282952	0.320302	-0.050918	1.859685
70.091435	714.316541	0.325307	-0.051051	1.868506
70.794439	725.361967	0.330312	-0.051185	1.877298
71.524417	736.396919	0.335317	-0.051325	1.886048
72.242781	747.446042	0.340321	-0.051463	1.894765
73.180097	758.394207	0.345326	-0.051641	1.903423
74.320473	769.464444	0.350331	-0.051858	1.912188
74.870092	780.570860	0.355335	-0.051964	1.920785
75.800580	791.531443	0.360340	-0.052141	1.929332
76.871170	802.569880	0.365345	-0.052345	1.937937
78.065911	813.557592	0.370350	-0.052572	1.946497
78.829661	824.669679	0.375354	-0.052718	1.955000
79.472098	835.729934	0.380359	-0.052841	1.963397
80.321015	846.704344	0.385364	-0.053003	1.971747
81.087911	857.776971	0.390369	-0.053150	1.980113
81.779323	868.821235	0.395373	-0.053282	1.988404
82.435145	879.825254	0.400378	-0.053408	1.996622
83.283494	890.855477	0.405383	-0.053570	2.004872
83.992362	901.909911	0.410387	-0.053706	2.013072
84.699202	912.945350	0.415392	-0.053841	2.021224
85.584015	923.924441	0.420397	-0.054010	2.029346
86.305825	935.001901	0.425402	-0.054148	2.037465
87.003539	946.037327	0.430406	-0.054281	2.045517
87.725384	957.049122	0.435411	-0.054420	2.053525
88.361249	968.105816	0.440416	-0.054542	2.061513
88.964541	979.122051	0.445421	-0.054658	2.069434
89.953812	990.119778	0.450425	-0.054846	2.077404
90.604143	1001.187258	0.455430	-0.054971	2.085311
91.532102	1012.193318	0.460435	-0.055148	2.093210
92.184603	1023.251918	0.465439	-0.055273	2.101051
92.884770	1034.260757	0.470444	-0.055407	2.108840
93.565051	1045.327448	0.475449	-0.055537	2.116635
94.310197	1056.332973	0.480454	-0.055680	2.124374
94.835465	1067.373800	0.485458	-0.055781	2.132057
95.435133	1078.416698	0.490463	-0.055896	2.139732
96.114366	1089.411080	0.495468	-0.056027	2.147364
97.126765	1100.435773	0.500472	-0.056219	2.155066
97.409922	1111.534336	0.505477	-0.056275	2.162623
98.236683	1122.474169	0.510482	-0.056433	2.170171
99.038822	1133.533728	0.515487	-0.056586	2.177767
99.902600	1144.554976	0.520491	-0.056751	2.185324
100.702463	1155.566762	0.525496	-0.056904	2.192835
101.304882	1166.633064	0.530501	-0.057020	2.200311
101.929624	1177.647560	0.535506	-0.057140	2.207733
102.565868	1188.712253	0.540510	-0.057262	2.215165
103.171287	1199.692015	0.545515	-0.057378	2.222510
103.858957	1210.734577	0.550520	-0.057510	2.229889
104.415779	1221.779936	0.555524	-0.057617	2.237217
105.071708	1232.761947	0.560529	-0.057743	2.244501
105.680960	1243.832081	0.565534	-0.057860	2.251809
106.322988	1254.867270	0.570539	-0.057983	2.259077
106.766386	1265.872168	0.575543	-0.058069	2.266259
107.556597	1276.869524	0.580548	-0.058220	2.273488
108.020123	1287.927638	0.585553	-0.058310	2.280663
108.922906	1298.922019	0.590558	-0.058482	2.287867
109.437290	1309.995586	0.595562	-0.058581	2.295018
110.108532	1320.976881	0.600567	-0.058710	2.302120
110.490067	1332.052136	0.605572	-0.058784	2.309198
111.064117	1343.044462	0.610576	-0.058894	2.316243
111.574756	1354.078792	0.615581	-0.058993	2.323280
112.183007	1365.099811	0.620586	-0.059110	2.330307
112.703528	1376.132554	0.625591	-0.059210	2.337302
113.405184	1387.155559	0.630595	-0.059345	2.344307
113.844651	1398.163570	0.635600	-0.059430	2.351228
114.634265	1409.179989	0.640605	-0.059581	2.358205
115.097535	1420.235888	0.645610	-0.059670	2.365119
115.845832	1431.218406	0.650614	-0.059814	2.372025
116.402858	1442.285925	0.655619	-0.059921	2.378925
117.307853	1453.219719	0.660624	-0.060093	2.385793
118.055225	1464.332122	0.665628	-0.060236	2.392718
118.596578	1475.338342	0.670633	-0.060341	2.399517
119.285272	1486.353756	0.675638	-0.060473	2.406331
119.942270	1497.391943	0.680643	-0.060599	2.413134
120.436720	1508.401463	0.685647	-0.060694	2.419868
121.012375	1519.438432	0.690652	-0.060805	2.426615
121.814377	1530.444919	0.695657	-0.060958	2.433370
122.379500	1541.484029	0.700661	-0.061067	2.440079
122.837218	1552.511577	0.705666	-0.061155	2.446741
123.342204	1563.554706	0.710671	-0.061253	2.453404
123.833353	1574.544268	0.715676	-0.061348	2.460014
124.147287	1585.605470	0.720680	-0.061409	2.466614
124.665043	1596.605234	0.725685	-0.061509	2.473200
125.295406	1607.596062	0.730690	-0.061630	2.479784
126.137016	1618.610737	0.735695	-0.061791	2.486405
126.877669	1629.692793	0.740699	-0.061933	2.493028
127.209358	1640.695864	0.745704	-0.061998	2.499509
127.887150	1651.698271	0.750709	-0.062128	2.506039
128.436547	1662.735842	0.755713	-0.062233	2.512548
128.892487	1673.771230	0.760718	-0.062322	2.519021
129.458813	1684.765596	0.765723	-0.062431	2.525475
130.005276	1695.819735	0.770728	-0.062536	2.531942
130.665059	1706.797509	0.775732	-0.062662	2.538370
131.637985	1717.789567	0.780737	-0.062848	2.544847
132.099077	1728.900660	0.785742	-0.062937	2.551282
132.523144	1739.896083	0.790747	-0.063019	2.557627
132.943184	1750.930049	0.795751	-0.063101	2.563978
133.607895	1761.935406	0.800756	-0.063228	2.570341
134.282029	1772.971739	0.805761	-0.063358	2.576708
135.259137	1783.966844	0.810765	-0.063544	2.583090
135.630210	1794.991160	0.815770	-0.063616	2.589363
136.341441	1806.008701	0.820775	-0.063752	2.595679
136.858035	1817.041813	0.825780	-0.063852	2.601952
137.374167	1828.070810	0.830784	-0.063951	2.608208
137.817946	1839.081973	0.835789	-0.064037	2.614426
138.466609	1850.092819	0.840794	-0.064162	2.620666
138.859637	1861.146903	0.845799	-0.064238	2.626869
139.316782	1872.155288	0.850803	-0.064327	2.633043
139.904276	1883.145552	0.855808	-0.064440	2.639216
140.434395	1894.193614	0.860813	-0.064542	2.645396
141.086242	1905.215070	0.865817	-0.064667	2.651568
141.456435	1916.256670	0.870822	-0.064739	2.657687
141.842117	1927.242752	0.875827	-0.064814	2.663765
142.393620	1938.260328	0.880832	-0.064920	2.669874
142.840986	1949.311565	0.885836	-0.065007	2.675970
143.495134	1960.303094	0.890841	-0.065133	2.682055
143.883530	1971.340950	0.895846	-0.065208	2.688105
144.539239	1982.331975	0.900850	-0.065334	2.694162
144.835379	1993.402865	0.905855	-0.065392	2.700187
145.484308	2004.370346	0.910860	-0.065517	2.706203
145.897342	2015.432644	0.915865	-0.065597	2.712216
146.319112	2026.435658	0.920869	-0.065679	2.718186
146.945204	2037.451230	0.925874	-0.065799	2.724183
147.539204	2048.455688	0.930879	-0.065913	2.730156
147.734843	2059.523040	0.935884	-0.065953	2.736083
148.312729	2070.465499	0.940888	-0.066064	2.741993
148.728408	2081.513125	0.945893	-0.066145	2.747920
149.170505	2092.538474	0.950898	-0.066230	2.753827
149.826754	2103.534181	0.955902	-0.066356	2.759740
150.227409	2114.580080	0.960907	-0.066434	2.765625
150.736742	2125.600074	0.965912	-0.066532	2.771502
151.032195	2136.639826	0.970917	-0.066591	2.777341
151.389463	2147.624836	0.975921	-0.066660	2.783150
151.858304	2158.654785	0.980926	-0.066751	2.788987
152.321690	2169.681942	0.985931	-0.066841	2.794811
152.894669	2180.678229	0.990936	-0.066951	2.800623
153.481828	2191.705712	0.995940	-0.067064	2.806442
154.015962	2202.744876	1.000945	-0.067167	2.812246
154.407613	2213.738553	1.005950	-0.067243	2.817992
154.862088	2224.781153	1.010954	-0.067331	2.823761
155.216459	2235.794656	1.015959	-0.067400	2.829487
155.858348	2246.797506	1.020964	-0.067523	2.835242
156.112381	2257.841921	1.025969	-0.067574	2.840945
156.532269	2268.852851	1.030973	-0.067655	2.846645
156.893259	2279.893474	1.035978	-0.067726	2.852340
157.190274	2290.872644	1.040983	-0.067784	2.857982
157.713111	2301.903403	1.045988	-0.067885	2.863675
158.240987	2312.917020	1.050992	-0.067987	2.869348
158.707700	2323.944680	1.055997	-0.068077	2.875007
159.107237	2334.971942	1.061002	-0.068155	2.880644
159.565500	2345.979771	1.066006	-0.068244	2.886270
160.087356	2357.024920	1.071011	-0.068344	2.891913
160.496067	2368.014921	1.076016	-0.068424	2.897500
161.049332	2379.017372	1.081021	-0.068530	2.903104
161.544958	2390.061186	1.086025	-0.068626	2.908709
162.018808	2401.077864	1.091030	-0.068718	2.914287
162.128238	2412.126882	1.096035	-0.068741	2.919814
162.806226	2423.099393	1.101039	-0.068871	2.925379
163.307622	2434.124596	1.106044	-0.068968	2.930933
163.760077	2445.160945	1.111049	-0.069055	2.936474
164.120895	2456.154911	1.116054	-0.069126	2.941970
164.655142	2467.187519	1.121058	-0.069229	2.947501
164.932101	2478.214780	1.126063	-0.069283	2.952980
165.455435	2489.223892	1.131068	-0.069384	2.958477
165.833237	2500.251612	1.136073	-0.069458	2.963950
166.533317	2511.247487	1.141077	-0.069592	2.969446
166.928670	2522.292575	1.146082	-0.069669	2.974910
167.319193	2533.294638	1.151087	-0.069745	2.980343
167.514579	2544.336862	1.156091	-0.069784	2.985757
168.046183	2555.323289	1.161096	-0.069887	2.991182
168.556473	2566.346314	1.166101	-0.069985	2.996613
168.983161	2577.365390	1.171106	-0.070068	3.002019
169.232709	2588.420487	1.176110	-0.070118	3.007407
169.713682	2599.397919	1.181115	-0.070211	3.012782
170.009032	2610.436789	1.186120	-0.070269	3.018150
170.459161	2621.423409	1.191125	-0.070356	3.023505
170.894570	2632.472761	1.196129	-0.070440	3.028878
171.294508	2643.471400	1.201134	-0.070518	3.034213
171.694105	2654.511470	1.206139	-0.070596	3.039558
172.210366	2665.502030	1.211143	-0.070695	3.044886
172.605116	2676.570829	1.216148	-0.070772	3.050225
172.969599	2687.545810	1.221153	-0.070843	3.055506
173.163835	2698.592710	1.226158	-0.070882	3.060787
173.835617	2709.558679	1.231162	-0.071011	3.066088
174.334010	2720.594439	1.236167	-0.071107	3.071389
174.806360	2731.606008	1.241172	-0.071199	3.076665
175.212227	2742.642108	1.246177	-0.071278	3.081934
175.670451	2753.660859	1.251181	-0.071366	3.087194
175.989994	2764.688067	1.256186	-0.071429	3.092429
176.305342	2775.702298	1.261191	-0.071491	3.097648
176.835162	2786.700883	1.266195	-0.071593	3.102881
177.345356	2797.718380	1.271200	-0.071692	3.108111
177.798924	2808.738890	1.276205	-0.071779	3.113325
178.212416	2819.788803	1.281210	-0.071860	3.118539
178.500591	2830.788489	1.286214	-0.071917	3.123704
178.969989	2841.810634	1.291219	-0.072007	3.128895
179.466537	2852.785768	1.296224	-0.072103	3.134060
180.677483	2863.787445	1.301228	-0.072333	3.139325
181.657028	2874.826601	1.306233	-0.072520	3.144567
182.057957	2885.882486	1.311238	-0.072598	3.149729
182.230639	2896.891464	1.316243	-0.072633	3.154831
182.567394	2907.916744	1.321247	-0.072699	3.159954
182.906648	2918.920810	1.326252	-0.072765	3.165059
183.344688	2929.965984	1.331257	-0.072850	3.170188
183.444143	2940.969767	1.336262	-0.072871	3.175244
184.032576	2951.976880	1.341266	-0.072985	3.180359
184.463688	2962.973422	1.346271	-0.073068	3.185440
184.995415	2974.004707	1.351276	-0.073171	3.190541
185.170913	2985.046883	1.356280	-0.073206	3.195593
185.635801	2996.038808	1.361285	-0.073296	3.200651
185.969500	3007.075504	1.366290	-0.073362	3.205705
186.605145	3018.062094	1.371295	-0.073484	3.210767
186.959114	3029.084393	1.376299	-0.073553	3.215801
187.472845	3040.120484	1.381304	-0.073652	3.220853
187.715308	3051.126449	1.386309	-0.073700	3.225849
188.051925	3062.158033	1.391314	-0.073766	3.230861
188.136990	3073.191808	1.396318	-0.073785	3.235833
188.733906	3084.153505	1.401323	-0.073899	3.240832
189.251920	3095.194389	1.406328	-0.073999	3.245848
189.678489	3106.224624	1.411332	-0.074082	3.250839
189.858261	3117.239389	1.416337	-0.074119	3.255784
190.246176	3128.247298	1.421342	-0.074194	3.260745
190.601433	3139.259250	1.426347	-0.074264	3.265697
191.236420	3150.272388	1.431351	-0.074385	3.270676
191.592769	3161.303578	1.436356	-0.074455	3.275621
192.231379	3172.289752	1.441361	-0.074578	3.280574
192.642144	3183.357978	1.446366	-0.074657	3.285526
193.026132	3194.366836	1.451370	-0.074732	3.290442
193.374039	3205.353952	1.456375	-0.074800	3.295336
193.966222	3216.375659	1.461380	-0.074914	3.300268
194.583133	3227.374792	1.466384	-0.075032	3.305186
195.133628	3238.407588	1.471389	-0.075138	3.310104
195.322880	3249.468335	1.476394	-0.075177	3.314981
195.657276	3260.449666	1.481399	-0.075242	3.319834
196.105721	3271.450923	1.486403	-0.075329	3.324703
196.652268	3282.501172	1.491408	-0.075434	3.329598
196.882369	3293.516956	1.496413	-0.075480	3.334432
197.226574	3304.511836	1.501417	-0.075548	3.339263
197.523555	3315.516138	1.506422	-0.075606	3.344086
197.957816	3326.569294	1.511427	-0.075690	3.348940
198.272684	3337.552817	1.516432	-0.075752	3.353742
198.776363	3348.601934	1.521436	-0.075849	3.358588
199.034914	3359.611125	1.526441	-0.075901	3.363380
199.450039	3370.625776	1.531446	-0.075981	3.368187
199.530926	3381.653559	1.536451	-0.075999	3.372952
200.133065	3392.637195	1.541455	-0.076115	3.377754
200.343003	3403.664261	1.546460	-0.076157	3.382521
200.912285	3414.684157	1.551465	-0.076266	3.387320
201.285049	3425.688191	1.556469	-0.076339	3.392083
201.575564	3436.726528	1.561474	-0.076396	3.396844
201.682456	3447.748305	1.566479	-0.076419	3.401569
202.159666	3458.741358	1.571484	-0.076511	3.406319
202.481044	3469.756748	1.576488	-0.076574	3.411054
203.050153	3480.769826	1.581493	-0.076684	3.415810
203.396282	3491.803866	1.586498	-0.076752	3.420542
203.739649	3502.822640	1.591503	-0.076819	3.425260
204.006782	3513.849232	1.596507	-0.076872	3.429967
204.460489	3524.823574	1.601512	-0.076959	3.434666
205.047010	3535.861047	1.606517	-0.077072	3.439401
205.543983	3546.889347	1.611521	-0.077168	3.444116
205.783599	3557.924658	1.616526	-0.077216	3.448796
206.235097	3568.897748	1.621531	-0.077303	3.453469
206.478891	3579.939359	1.626536	-0.077352	3.458140
207.237522	3590.911667	1.631540	-0.077497	3.462835
207.628871	3601.976979	1.636545	-0.077573	3.467520
207.969613	3612.975973	1.641550	-0.077640	3.472166
208.176988	3624.015227	1.646555	-0.077681	3.476806
208.421021	3634.993603	1.651559	-0.077730	3.481419
208.763694	3646.046030	1.656564	-0.077797	3.486068
209.167604	3657.028616	1.661569	-0.077875	3.490689
209.558838	3668.063374	1.666573	-0.077952	3.495323
210.131374	3679.060143	1.671578	-0.078062	3.499956
210.338546	3690.115428	1.676583	-0.078103	3.504566
210.732291	3701.098705	1.681588	-0.078180	3.509161
211.169142	3712.119048	1.686592	-0.078265	3.513770
211.863597	3723.142052	1.691597	-0.078398	3.518403
212.147231	3734.154211	1.696602	-0.078454	3.522979
212.674842	3745.172712	1.701606	-0.078555	3.527579
212.807486	3756.203279	1.706611	-0.078583	3.532134
213.472075	3767.183219	1.711616	-0.078710	3.536721
213.748238	3778.222415	1.716621	-0.078765	3.541284
214.168401	3789.241214	1.721625	-0.078847	3.545848
214.448738	3800.230502	1.726630	-0.078902	3.550379
215.078603	3811.263338	1.731635	-0.079023	3.554960
215.387188	3822.300679	1.736640	-0.079083	3.559501
215.629982	3833.291886	1.741644	-0.079132	3.564011
216.286155	3844.305594	1.746649	-0.079258	3.568569
216.953347	3855.322599	1.751654	-0.079385	3.573124
217.158761	3866.350595	1.756658	-0.079427	3.577627
217.704084	3877.342898	1.761663	-0.079532	3.582147
217.887249	3888.386632	1.766668	-0.079569	3.586642
218.221743	3899.391804	1.771673	-0.079634	3.591133
218.525157	3910.407720	1.776677	-0.079694	3.595619
219.114734	3921.414354	1.781682	-0.079807	3.600126
219.324850	3932.464621	1.786687	-0.079850	3.604605
219.739957	3943.434214	1.791692	-0.079930	3.609067
220.177711	3954.479335	1.796696	-0.080015	3.613556
220.669817	3965.492348	1.801701	-0.080110	3.618033
221.008951	3976.527895	1.806706	-0.080176	3.622497
221.455669	3987.517818	1.811710	-0.080263	3.626948
221.720378	3998.529769	1.816715	-0.080315	3.631384
222.221581	4009.544006	1.821720	-0.080412	3.635839
222.412258	4020.588859	1.826725	-0.080451	3.640269
222.906550	4031.579396	1.831729	-0.080546	3.644704
223.133695	4042.589490	1.836734	-0.080592	3.649113
223.361143	4053.646006	1.841739	-0.080637	3.653535
223.624658	4064.636710	1.846744	-0.080689	3.657929
224.231852	4075.630553	1.851748	-0.080806	3.662355
224.556300	4086.683677	1.856753	-0.080869	3.666769
225.023768	4097.671291	1.861758	-0.080960	3.671167
225.346451	4108.761567	1.866762	-0.081023	3.675585
225.636114	4119.756204	1.871767	-0.081080	3.679957
225.947081	4130.780811	1.876772	-0.081141	3.684338
226.288894	4141.775917	1.881777	-0.081208	3.688704
226.482755	4152.811612	1.886781	-0.081247	3.693067
226.900138	4163.828848	1.891786	-0.081328	3.697439
227.348876	4174.825122	1.896791	-0.081415	3.701802
227.739407	4185.840249	1.901795	-0.081491	3.706160
227.952460	4196.871441	1.906800	-0.081534	3.710502
228.393791	4207.866446	1.911805	-0.081619	3.714848
228.842578	4218.883985	1.916810	-0.081706	3.719197
229.362122	4229.908615	1.921814	-0.081807	3.723552
229.731024	4240.922822	1.926819	-0.081879	3.727882
230.175048	4251.945310	1.931824	-0.081965	3.732218
230.609313	4262.956197	1.936829	-0.082049	3.736543
230.980667	4273.964171	1.941833	-0.082121	3.740856
231.308174	4285.004445	1.946838	-0.082185	3.745172
231.484319	4296.009377	1.951843	-0.082221	3.749454
231.914308	4307.009836	1.956847	-0.082305	3.753755
232.305477	4318.033994	1.961852	-0.082381	3.758055
232.517141	4329.073177	1.966857	-0.082423	3.762339
