Wed Nov 23 19:44:20 2022

Number of Points = 2200
Depth (nm)	Load (µN)	Time (s)	Depth (V)	Load (V)
-1.307553	1.363940	0.000000	0.011348	1.026548
0.000000	7.763079	0.005005	0.011101	1.036363
1.118130	17.054031	0.010009	0.010889	1.050045
2.308387	27.716212	0.015014	0.010663	1.065482
3.312661	38.796276	0.020019	0.010471	1.081172
4.240122	49.918522	0.025024	0.010295	1.096656
4.983310	61.108795	0.030028	0.010152	1.111924
5.549412	72.282560	0.035033	0.010043	1.126878
6.129560	83.421830	0.040038	0.009932	1.141598
6.741392	94.526112	0.045043	0.009814	1.156100
7.165341	105.665708	0.050047	0.009732	1.170380
7.643973	116.787157	0.055052	0.009639	1.184490
8.071779	127.905340	0.060057	0.009556	1.198406
8.623876	138.974761	0.065061	0.009450	1.212159
9.189209	150.086750	0.070066	0.009341	1.225813
9.723890	161.192222	0.075071	0.009238	1.239296
10.033985	172.318471	0.080076	0.009177	1.252561
10.647998	183.366044	0.085080	0.009059	1.265725
11.280053	194.441337	0.090085	0.008938	1.278792
11.709022	205.576138	0.095090	0.008855	1.291710
11.967882	216.737847	0.100094	0.008803	1.304460
12.592513	227.730156	0.105099	0.008683	1.317046
12.878739	238.841800	0.110104	0.008627	1.329509
13.251457	249.915475	0.115109	0.008554	1.341848
13.546960	260.998484	0.120113	0.008496	1.354055
13.992290	272.045373	0.125118	0.008410	1.366172
14.399859	283.136860	0.130123	0.008331	1.378215
14.825744	294.208567	0.135128	0.008248	1.390139
15.270649	305.260051	0.140132	0.008162	1.401948
15.672651	316.337358	0.145137	0.008084	1.413668
16.032868	327.424775	0.150142	0.008013	1.425287
40.720054	333.892967	0.155146	0.003379	1.441067
42.680346	348.864032	0.160151	0.003008	1.456965
43.662828	360.433804	0.165156	0.002821	1.468940
44.784588	371.555126	0.170161	0.002607	1.480423
45.606494	382.688967	0.175165	0.002450	1.491722
46.842814	393.677536	0.180170	0.002216	1.502940
47.679530	404.798857	0.185175	0.002056	1.514063
48.832012	415.799508	0.190180	0.001837	1.525098
50.253678	426.820654	0.195184	0.001567	1.536165
51.278656	437.946662	0.200189	0.001372	1.547116
52.357248	448.961880	0.205194	0.001167	1.557903
53.273029	460.085030	0.210198	0.000993	1.568663
54.407656	471.108591	0.215203	0.000777	1.579328
55.374034	482.160019	0.220208	0.000593	1.589892
56.370256	493.224952	0.225213	0.000403	1.600407
57.269117	504.285252	0.230217	0.000232	1.610818
58.648747	515.285622	0.235222	-0.000030	1.621262
59.793881	526.323855	0.240227	-0.000247	1.631597
60.826494	537.434339	0.245232	-0.000444	1.641896
61.355521	548.522166	0.250236	-0.000546	1.651950
62.698317	559.465048	0.255241	-0.000801	1.662071
63.762811	570.534745	0.260246	-0.001003	1.672155
64.905885	581.589761	0.265250	-0.001220	1.682188
65.611806	592.698172	0.270255	-0.001355	1.692074
66.747968	603.706060	0.275260	-0.001571	1.701947
67.482957	614.757832	0.280265	-0.001712	1.711678
68.567789	625.786763	0.285269	-0.001918	1.721440
69.298037	636.880551	0.290274	-0.002058	1.731095
70.188737	647.885594	0.295279	-0.002228	1.740669
71.087447	658.957278	0.300283	-0.002399	1.750248
72.024496	669.952753	0.305288	-0.002578	1.759723
73.020985	681.002167	0.310293	-0.002768	1.769208
73.940590	692.071840	0.315298	-0.002943	1.778637
74.705257	703.126627	0.320302	-0.003089	1.787958
75.508083	714.165928	0.325307	-0.003242	1.797230
76.176963	725.211162	0.330312	-0.003371	1.806420
77.329147	736.199166	0.335317	-0.003590	1.815653
78.104810	747.259229	0.340321	-0.003738	1.824792
78.672253	758.360770	0.345326	-0.003847	1.833859
79.681755	769.310386	0.350331	-0.004039	1.842884
80.445866	780.402598	0.355335	-0.004185	1.851909
81.031955	791.467239	0.360340	-0.004298	1.860819
82.152158	802.421297	0.365345	-0.004511	1.869747
82.750656	813.538796	0.370350	-0.004626	1.878616
83.531771	824.546287	0.375354	-0.004775	1.887408
84.051903	835.609369	0.380359	-0.004876	1.896131
85.108825	846.571018	0.385364	-0.005077	1.904880
85.990897	857.627652	0.390369	-0.005245	1.913615
87.152687	868.630304	0.395373	-0.005466	1.922342
87.978347	879.734318	0.400378	-0.005623	1.931018
88.635125	890.775314	0.405383	-0.005749	1.939563
89.076796	901.819487	0.410387	-0.005835	1.948016
89.790992	912.833744	0.415392	-0.005972	1.956481
90.502733	923.843123	0.420397	-0.006108	1.964905
91.351123	934.895021	0.425402	-0.006270	1.973359
91.985304	945.931738	0.430406	-0.006392	1.981711
92.918786	956.921430	0.435411	-0.006570	1.990069
93.799563	967.967228	0.440416	-0.006738	1.998419
94.596446	979.035926	0.445421	-0.006890	2.006730
95.046706	990.088083	0.450425	-0.006977	2.014908
95.556528	1001.138063	0.455430	-0.007075	2.023065
96.306840	1012.115254	0.460435	-0.007219	2.031197
97.011884	1023.147404	0.465439	-0.007354	2.039324
97.690260	1034.192303	0.470444	-0.007484	2.047421
98.672352	1045.220265	0.475449	-0.007671	2.055548
99.105662	1056.267309	0.480454	-0.007755	2.063523
99.968249	1067.269599	0.485458	-0.007920	2.071539
100.690072	1078.324894	0.490463	-0.008058	2.079528
101.467261	1089.333025	0.495468	-0.008206	2.087465
102.134539	1100.400415	0.500472	-0.008334	2.095388
103.090300	1111.370605	0.505477	-0.008516	2.103281
103.545099	1122.460704	0.510482	-0.008604	2.111109
104.155642	1133.485522	0.515487	-0.008722	2.118900
104.982844	1144.455572	0.520491	-0.008880	2.126674
105.980292	1155.509446	0.525496	-0.009070	2.134518
106.549078	1166.560926	0.530501	-0.009179	2.142231
107.279450	1177.584789	0.535506	-0.009319	2.149935
107.900450	1188.607596	0.540510	-0.009438	2.157585
108.559838	1199.652605	0.545515	-0.009564	2.165231
109.194136	1210.685530	0.550520	-0.009686	2.172837
110.008398	1221.692351	0.555524	-0.009842	2.180439
110.503948	1232.732072	0.560529	-0.009937	2.187964
111.272810	1243.743275	0.565534	-0.010084	2.195506
111.589217	1254.819813	0.570539	-0.010147	2.202964
112.388094	1265.792698	0.575543	-0.010299	2.210435
112.908025	1276.860901	0.580548	-0.010399	2.217882
113.532698	1287.854084	0.585553	-0.010519	2.225277
114.280237	1298.880970	0.590558	-0.010662	2.232697
114.745682	1309.958243	0.595562	-0.010752	2.240064
115.335032	1320.937705	0.600567	-0.010866	2.247369
116.127922	1331.976436	0.605572	-0.011017	2.254733
116.554162	1343.004618	0.610576	-0.011100	2.261987
117.434254	1354.002896	0.615581	-0.011268	2.269295
118.012768	1365.055526	0.620586	-0.011379	2.276551
118.663847	1376.078348	0.625591	-0.011504	2.283779
119.257357	1387.089805	0.630595	-0.011618	2.290965
119.836676	1398.142532	0.635600	-0.011730	2.298151
120.398315	1409.157189	0.640605	-0.011838	2.305287
120.945929	1420.181781	0.645610	-0.011943	2.312404
121.614933	1431.190263	0.650614	-0.012071	2.319514
122.131008	1442.242056	0.655619	-0.012171	2.326598
122.622425	1453.289102	0.660624	-0.012266	2.333651
123.173012	1464.277233	0.665628	-0.012372	2.340659
123.551759	1475.317620	0.670633	-0.012446	2.347643
124.279583	1486.324577	0.675638	-0.012585	2.354656
124.682246	1497.351859	0.680643	-0.012663	2.361595
125.846533	1508.318661	0.685647	-0.012885	2.368632
126.336130	1519.430112	0.690652	-0.012979	2.375599
126.869223	1530.430723	0.695657	-0.013082	2.382486
127.292500	1541.464068	0.700661	-0.013164	2.389351
127.860600	1552.473698	0.705666	-0.013273	2.396211
128.479739	1563.497686	0.710671	-0.013392	2.403070
129.126970	1574.521030	0.715676	-0.013516	2.409914
129.653131	1585.554196	0.720680	-0.013618	2.416721
130.252907	1596.580150	0.725685	-0.013733	2.423519
130.589292	1607.605290	0.730690	-0.013799	2.430245
131.129818	1618.632244	0.735695	-0.013903	2.436993
131.544823	1629.649693	0.740699	-0.013984	2.443692
132.151504	1640.672898	0.745704	-0.014100	2.450414
132.504853	1651.697800	0.750709	-0.014169	2.457069
133.011365	1662.722801	0.755713	-0.014267	2.463736
133.536468	1673.710266	0.760718	-0.014368	2.470365
134.203774	1684.763989	0.765723	-0.014496	2.477044
134.779047	1695.775072	0.770728	-0.014607	2.483661
135.290489	1706.816977	0.775732	-0.014706	2.490267
135.668386	1717.856570	0.780737	-0.014779	2.496828
136.116324	1728.853417	0.785742	-0.014866	2.503360
136.696822	1739.830478	0.790747	-0.014978	2.509888
137.465571	1750.902172	0.795751	-0.015125	2.516490
137.870003	1761.933137	0.800756	-0.015203	2.522982
138.627398	1772.916596	0.805761	-0.015348	2.529496
138.952620	1783.979503	0.810765	-0.015412	2.535959
139.231671	1795.011811	0.815770	-0.015467	2.542378
139.748978	1806.002294	0.820775	-0.015567	2.548802
140.274453	1817.038740	0.825780	-0.015668	2.555236
140.585112	1828.059995	0.830784	-0.015729	2.561607
141.084370	1839.080419	0.835789	-0.015826	2.567995
141.462916	1850.145323	0.840794	-0.015899	2.574371
141.955661	1861.131668	0.845799	-0.015995	2.580707
142.385789	1872.154501	0.850803	-0.016078	2.587037
142.693903	1883.194063	0.855808	-0.016139	2.593338
142.915825	1894.177480	0.860813	-0.016183	2.599577
143.234654	1905.223186	0.865817	-0.016246	2.605853
143.536991	1916.237238	0.870822	-0.016305	2.612094
144.034013	1927.247893	0.875827	-0.016401	2.618352
144.308251	1938.268642	0.880832	-0.016455	2.624561
144.977495	1949.277273	0.885836	-0.016583	2.630819
145.559162	1960.309193	0.890841	-0.016695	2.637060
145.903708	1971.330911	0.895846	-0.016763	2.643237
146.556319	1982.325729	0.900850	-0.016888	2.649440
146.926727	1993.400974	0.905855	-0.016960	2.655623
147.220051	2004.413580	0.910860	-0.017018	2.661743
147.721775	2015.412506	0.915865	-0.017115	2.667878
148.152068	2026.408213	0.920869	-0.017198	2.673985
148.525355	2037.468813	0.925874	-0.017271	2.680103
149.072047	2048.457941	0.930879	-0.017376	2.686198
149.545137	2059.484545	0.935884	-0.017468	2.692287
149.742811	2070.492647	0.940888	-0.017508	2.698305
150.411139	2081.495733	0.945893	-0.017636	2.704387
150.625195	2092.574154	0.950898	-0.017679	2.710418
150.891324	2103.543615	0.955902	-0.017731	2.716386
151.251386	2114.608921	0.960907	-0.017802	2.722408
151.738878	2125.576552	0.965912	-0.017896	2.728386
152.203157	2136.606456	0.970917	-0.017986	2.734381
152.731525	2147.621766	0.975921	-0.018088	2.740365
153.192815	2158.666481	0.980926	-0.018177	2.746340
153.713832	2169.667262	0.985931	-0.018277	2.752289
154.195267	2180.689026	0.990936	-0.018370	2.758229
154.558948	2191.715442	0.995940	-0.018441	2.764139
154.950862	2202.741745	1.000945	-0.018518	2.770041
155.554070	2213.732590	1.005950	-0.018634	2.775947
155.905985	2224.775001	1.010954	-0.018702	2.781825
156.228773	2235.815237	1.015959	-0.018766	2.787686
156.295368	2246.838025	1.020964	-0.018781	2.793483
156.959808	2257.803401	1.025969	-0.018908	2.799335
157.338528	2268.864016	1.030973	-0.018982	2.805178
157.621069	2279.897149	1.035978	-0.019038	2.810979
158.014887	2290.903889	1.040983	-0.019114	2.816772
158.459031	2301.898921	1.045988	-0.019200	2.822555
158.913401	2312.917497	1.050992	-0.019288	2.828341
159.323157	2323.952453	1.055997	-0.019368	2.834115
159.611157	2334.976021	1.061002	-0.019425	2.839852
160.165411	2345.987313	1.066006	-0.019532	2.845614
160.401070	2357.022047	1.071011	-0.019578	2.851325
160.949791	2368.015569	1.076016	-0.019684	2.857054
161.023712	2379.066990	1.081021	-0.019701	2.862725
161.370400	2390.066270	1.086025	-0.019769	2.868401
161.852821	2401.079722	1.091030	-0.019862	2.874095
162.209412	2412.095307	1.096035	-0.019931	2.879759
162.567330	2423.149819	1.101039	-0.020001	2.885431
162.935512	2434.143246	1.106044	-0.020073	2.891063
163.188749	2445.190050	1.111049	-0.020123	2.896693
163.390869	2456.177773	1.116054	-0.020164	2.902274
163.869377	2467.191030	1.121058	-0.020257	2.907900
164.373469	2478.178614	1.126063	-0.020354	2.913506
164.765789	2489.271222	1.131068	-0.020430	2.919136
165.203936	2500.235813	1.136073	-0.020515	2.924699
165.695246	2511.279935	1.141077	-0.020610	2.930298
165.918241	2522.292840	1.146082	-0.020655	2.935831
166.209611	2533.318533	1.151087	-0.020712	2.941370
166.566937	2544.334006	1.156091	-0.020782	2.946903
166.792005	2555.361635	1.161096	-0.020827	2.952411
167.129571	2566.353943	1.166101	-0.020893	2.957909
168.320315	2577.277994	1.171106	-0.021119	2.963491
169.759751	2588.327911	1.176110	-0.021392	2.969161
170.838366	2599.401887	1.181115	-0.021597	2.974777
171.081307	2610.439055	1.186120	-0.021645	2.980241
171.454374	2621.460040	1.191125	-0.021718	2.985706
172.034982	2632.466503	1.196129	-0.021830	2.991185
172.430109	2643.486408	1.201134	-0.021907	2.996632
172.793799	2654.510666	1.206139	-0.021977	3.002067
173.263247	2665.514547	1.211143	-0.022068	3.007498
174.145570	2676.489379	1.216148	-0.022237	3.012965
175.136298	2687.535647	1.221153	-0.022425	3.018472
175.747286	2698.560982	1.226158	-0.022543	3.023904
176.162174	2709.607409	1.231162	-0.022623	3.029308
176.493778	2720.616105	1.236167	-0.022688	3.034671
176.862799	2731.658746	1.241172	-0.022760	3.040047
177.175428	2742.655706	1.246177	-0.022821	3.045383
177.689535	2753.681807	1.251181	-0.022921	3.050753
178.232857	2764.674228	1.256186	-0.023025	3.056101
178.607159	2775.713976	1.261191	-0.023098	3.061438
179.031950	2786.712602	1.266195	-0.023181	3.066753
179.443437	2797.746523	1.271200	-0.023261	3.072074
179.818038	2808.757159	1.276205	-0.023334	3.077369
180.115594	2819.788326	1.281210	-0.023392	3.082654
180.612639	2830.801369	1.286214	-0.023488	3.087949
180.969651	2841.813300	1.291219	-0.023558	3.093215
181.516720	2852.812625	1.296224	-0.023663	3.098492
182.094700	2863.831431	1.301228	-0.023775	3.103774
182.721206	2874.867908	1.306233	-0.023895	3.109062
182.939147	2885.898205	1.311238	-0.023938	3.114281
183.446309	2896.898627	1.316243	-0.024036	3.119517
183.888014	2907.914682	1.321247	-0.024122	3.124743
184.305936	2918.957313	1.326252	-0.024203	3.129969
184.530192	2929.980114	1.331257	-0.024248	3.135150
184.843040	2940.967928	1.336262	-0.024309	3.140319
185.196333	2952.010625	1.341266	-0.024378	3.145509
185.591591	2962.990429	1.346271	-0.024455	3.150668
186.235324	2973.994021	1.351276	-0.024579	3.155863
186.751748	2985.028698	1.356280	-0.024678	3.161047
187.242419	2996.074698	1.361285	-0.024773	3.166223
187.521882	3007.095387	1.366290	-0.024828	3.171351
187.987310	3018.072549	1.371295	-0.024918	3.176476
188.163572	3029.127020	1.376299	-0.024954	3.181589
188.628809	3040.130346	1.381304	-0.025044	3.186708
189.090187	3051.142082	1.386309	-0.025134	3.191823
189.583714	3062.151717	1.391314	-0.025229	3.196933
190.144777	3073.174237	1.396318	-0.025337	3.202049
190.423167	3084.220257	1.401323	-0.025392	3.207131
190.763042	3095.197076	1.406328	-0.025458	3.212180
191.150674	3106.231929	1.411332	-0.025534	3.217255
191.639845	3117.232582	1.416337	-0.025628	3.222319
192.085356	3128.271223	1.421342	-0.025715	3.227387
192.467329	3139.290138	1.426347	-0.025789	3.232429
192.800714	3150.308186	1.431351	-0.025854	3.237457
193.367274	3161.292509	1.436356	-0.025963	3.242492
194.146549	3172.313007	1.441361	-0.026112	3.247562
194.604375	3183.336989	1.446366	-0.026201	3.252585
194.988626	3194.373877	1.451370	-0.026276	3.257596
195.523477	3205.362009	1.456375	-0.026379	3.262597
195.821707	3216.424849	1.461380	-0.026438	3.267593
196.093899	3227.410431	1.466384	-0.026491	3.272544
196.444070	3238.444482	1.471389	-0.026560	3.277518
196.797156	3249.457001	1.476394	-0.026629	3.282476
197.147376	3260.483836	1.481399	-0.026697	3.287432
197.416096	3271.489773	1.486403	-0.026750	3.292361
197.754371	3282.506041	1.491408	-0.026817	3.297296
198.239398	3293.495304	1.496413	-0.026910	3.302230
198.741371	3304.555952	1.501417	-0.027007	3.307191
199.245904	3315.519199	1.506422	-0.027105	3.312100
199.810697	3326.562820	1.511427	-0.027213	3.317046
200.216950	3337.582623	1.516432	-0.027292	3.321954
200.579642	3348.614415	1.521436	-0.027363	3.326854
201.116127	3359.605887	1.526441	-0.027466	3.331751
201.546798	3370.641095	1.531446	-0.027550	3.336647
201.945838	3381.640537	1.536451	-0.027628	3.341515
202.090730	3392.698049	1.541455	-0.027658	3.346371
202.292719	3403.691329	1.546460	-0.027698	3.351199
202.902961	3414.680370	1.551465	-0.027815	3.356067
203.256019	3425.713764	1.556469	-0.027884	3.360917
203.506414	3436.767119	1.561474	-0.027934	3.365755
203.806972	3447.740560	1.566479	-0.027993	3.370558
204.387302	3458.750981	1.571484	-0.028105	3.375404
204.902815	3469.766356	1.576488	-0.028204	3.380237
205.495208	3480.816241	1.581493	-0.028318	3.385088
205.744515	3491.797503	1.586498	-0.028368	3.389860
206.085324	3502.853718	1.591503	-0.028434	3.394669
206.478713	3513.851071	1.596507	-0.028511	3.399452
206.938465	3524.863980	1.601512	-0.028600	3.404242
207.215404	3535.896402	1.606517	-0.028655	3.409013
207.680322	3546.904702	1.611521	-0.028745	3.413788
208.080381	3557.890689	1.616526	-0.028822	3.418540
208.569940	3568.932556	1.621531	-0.028917	3.423320
208.905270	3579.944515	1.626536	-0.028983	3.428061
209.385669	3590.963407	1.631540	-0.029075	3.432816
209.642547	3601.998927	1.636545	-0.029126	3.437546
209.957152	3613.005296	1.641550	-0.029188	3.442263
210.285662	3624.013663	1.646555	-0.029252	3.446976
210.833699	3635.018171	1.651559	-0.029358	3.451706
211.314296	3646.034730	1.656564	-0.029451	3.456427
212.037009	3657.029040	1.661569	-0.029589	3.461161
212.213745	3668.098823	1.666573	-0.029625	3.465856
212.767348	3679.081100	1.671578	-0.029732	3.470551
212.982330	3690.107811	1.676583	-0.029775	3.475220
213.245970	3701.151829	1.681588	-0.029827	3.479895
213.774494	3712.128065	1.686592	-0.029929	3.484566
214.269354	3723.161501	1.691597	-0.030025	3.489250
214.492610	3734.173253	1.696602	-0.030069	3.493888
214.926115	3745.227645	1.701606	-0.030153	3.498562
215.054644	3756.194856	1.706611	-0.030180	3.503158
215.608594	3767.230038	1.711616	-0.030287	3.507825
216.004114	3778.207286	1.716621	-0.030364	3.512443
216.683585	3789.247619	1.721625	-0.030494	3.517114
217.111068	3800.255849	1.726630	-0.030577	3.521736
217.561948	3811.323039	1.731635	-0.030664	3.526380
217.706388	3822.309549	1.736640	-0.030694	3.530949
218.111039	3833.312508	1.741644	-0.030773	3.535548
218.525069	3844.319323	1.746649	-0.030853	3.540144
218.922518	3855.362706	1.751654	-0.030930	3.544747
219.068266	3866.371977	1.756658	-0.030960	3.549302
219.643408	3877.383827	1.761663	-0.031071	3.553900
219.970754	3888.398124	1.766668	-0.031135	3.558466
220.398599	3899.417354	1.771673	-0.031218	3.563038
220.600258	3910.444067	1.776677	-0.031259	3.567583
221.097306	3921.424873	1.781682	-0.031355	3.572135
221.378070	3932.455176	1.786687	-0.031410	3.576678
221.724731	3943.489773	1.791692	-0.031478	3.581225
222.151924	3954.491151	1.796696	-0.031561	3.585760
222.592799	3965.506260	1.801701	-0.031646	3.590297
222.923332	3976.518319	1.806706	-0.031711	3.594815
223.425925	3987.533266	1.811710	-0.031808	3.599347
223.717733	3998.577111	1.816715	-0.031866	3.603862
224.147721	4009.597557	1.821720	-0.031949	3.608377
224.516070	4020.578368	1.826725	-0.032021	3.612863
224.957709	4031.595423	1.831729	-0.032106	3.617366
225.330536	4042.600764	1.836734	-0.032179	3.621852
225.800205	4053.663360	1.841739	-0.032270	3.626365
226.071940	4064.621172	1.846744	-0.032324	3.630809
226.565559	4075.669099	1.851748	-0.032419	3.635307
226.897822	4086.670370	1.856753	-0.032484	3.639764
227.256836	4097.751523	1.861758	-0.032554	3.644251
227.446437	4108.764268	1.866762	-0.032593	3.648686
227.831998	4119.783499	1.871767	-0.032668	3.653139
228.055339	4130.809162	1.876772	-0.032712	3.657573
228.436938	4141.806859	1.881777	-0.032787	3.662006
228.715049	4152.828135	1.886781	-0.032841	3.666432
229.241113	4163.836442	1.891786	-0.032943	3.670874
229.641883	4174.844242	1.896791	-0.033021	3.675297
230.048469	4185.868067	1.901795	-0.033100	3.679721
230.335015	4196.890444	1.906800	-0.033156	3.684127
230.769083	4207.912216	1.911805	-0.033241	3.688543
231.057703	4218.908971	1.916810	-0.033297	3.692929
231.536524	4229.951677	1.921814	-0.033390	3.697347
231.764944	4240.930805	1.926819	-0.033436	3.701708
232.149055	4251.984760	1.931824	-0.033510	3.706110
232.325542	4262.967373	1.936829	-0.033546	3.710458
232.749510	4274.008386	1.941833	-0.033629	3.714848
233.000084	4284.994918	1.946838	-0.033678	3.719194
233.690467	4296.020782	1.951843	-0.033811	3.723595
233.873150	4307.055259	1.956847	-0.033848	3.727943
234.173765	4318.093879	1.961852	-0.033907	3.732299
234.459368	4329.061738	1.966857	-0.033963	3.736621
234.747333	4340.082686	1.971862	-0.034020	3.740959
