Wed Nov 23 17:12:02 2022

Number of Points = 2200
Depth (nm)	Load (µN)	Time (s)	Depth (V)	Load (V)
-1.141368	0.861726	0.000000	0.071474	0.837095
0.000000	6.746500	0.005005	0.071259	0.848200
1.416702	15.432088	0.010009	0.070991	0.864157
2.444539	25.908383	0.015014	0.070795	0.882593
3.727848	36.860183	0.020019	0.070552	0.901589
4.922907	48.020950	0.025024	0.070325	0.920477
6.307419	59.193094	0.030028	0.070062	0.939112
7.151924	70.516435	0.035033	0.069901	0.957307
8.668837	81.612705	0.040038	0.069614	0.975196
11.846970	92.338288	0.045043	0.069015	0.993126
14.414018	103.650654	0.050047	0.068530	1.011265
16.420775	114.960690	0.055052	0.068151	1.028779
17.718305	126.325734	0.060057	0.067904	1.045706
18.938886	137.551425	0.065061	0.067673	1.062127
20.603490	148.607184	0.070066	0.067358	1.078289
22.275116	159.779440	0.075071	0.067041	1.094372
23.587103	170.965876	0.080076	0.066792	1.110062
25.060908	182.104380	0.085080	0.066513	1.125549
26.037833	193.356579	0.090085	0.066327	1.140734
27.387437	204.385988	0.095090	0.066071	1.155609
28.440113	215.582541	0.100094	0.065871	1.170368
29.507834	226.706723	0.105099	0.065667	1.184858
30.759839	237.779629	0.110104	0.065430	1.199192
32.026414	248.863313	0.115109	0.065189	1.213377
33.198687	260.013826	0.120113	0.064967	1.227435
34.373727	271.095928	0.125118	0.064743	1.241252
35.656266	282.198148	0.130123	0.064500	1.254987
36.756780	293.313962	0.135128	0.064291	1.268511
37.998245	304.395245	0.140132	0.064055	1.281911
39.066634	315.524965	0.145137	0.063852	1.295154
40.262319	326.625373	0.150142	0.063625	1.308282
41.219952	337.721139	0.155146	0.063442	1.321177
42.647477	348.705756	0.160151	0.063172	1.334012
43.439223	359.919310	0.165156	0.063020	1.346722
44.724944	370.895418	0.170161	0.062776	1.359249
45.621993	382.039069	0.175165	0.062605	1.371690
46.756559	393.098911	0.180170	0.062390	1.384021
47.824109	404.155243	0.185175	0.062187	1.396213
48.790011	415.269803	0.190180	0.062003	1.408321
49.694398	426.348983	0.195184	0.061830	1.420265
50.813227	437.375798	0.200189	0.061618	1.432135
51.684896	448.504738	0.205194	0.061451	1.443920
52.613999	459.530637	0.210198	0.061274	1.455525
53.687467	470.593802	0.215203	0.061070	1.467128
54.650480	481.651769	0.220208	0.060887	1.478595
55.504098	492.767481	0.225213	0.060724	1.489990
56.323419	503.809005	0.230217	0.060567	1.501214
57.440047	514.829681	0.235222	0.060355	1.512438
58.419022	525.907632	0.240227	0.060168	1.523586
59.299535	536.993469	0.245232	0.060001	1.534626
60.184235	548.038262	0.250236	0.059832	1.545549
60.923319	559.127065	0.255241	0.059690	1.556387
61.678027	570.176528	0.260246	0.059546	1.567118
62.747059	581.173291	0.265250	0.059343	1.577831
63.732447	592.237743	0.270255	0.059155	1.588507
64.519737	603.340914	0.275260	0.059005	1.599082
65.593827	614.326747	0.280265	0.058800	1.609572
66.181318	625.495991	0.285269	0.058687	1.620003
66.828208	636.491498	0.290274	0.058563	1.630229
67.645585	647.529325	0.295279	0.058407	1.640484
68.468434	658.577361	0.300283	0.058250	1.650685
69.515537	669.584416	0.305288	0.058051	1.660858
70.272186	680.699602	0.310293	0.057906	1.670972
70.655506	691.781411	0.315298	0.057831	1.680880
71.734427	702.731422	0.320302	0.057626	1.690829
72.477142	713.826456	0.325307	0.057484	1.700743
73.503470	724.816471	0.330312	0.057289	1.710594
74.014008	735.966568	0.335317	0.057190	1.720370
74.655960	746.961365	0.340321	0.057067	1.729997
75.488975	758.008561	0.345326	0.056908	1.739672
76.157264	769.040716	0.350331	0.056780	1.749231
77.137867	780.047522	0.355335	0.056593	1.758810
77.835204	791.152155	0.360340	0.056460	1.768334
78.386229	802.197100	0.365345	0.056353	1.777715
79.200796	813.197065	0.370350	0.056198	1.787085
80.000998	824.246920	0.375354	0.056045	1.796444
80.730033	835.306935	0.380359	0.055905	1.805741
81.414175	846.323596	0.385364	0.055774	1.814942
82.211468	857.372247	0.390369	0.055622	1.824154
82.806291	868.422577	0.395373	0.055508	1.833264
83.586669	879.464198	0.400378	0.055359	1.842374
84.329274	890.464820	0.405383	0.055216	1.851395
85.185043	901.526869	0.410387	0.055053	1.860452
85.864142	912.562963	0.415392	0.054923	1.869396
86.430797	923.643402	0.420397	0.054814	1.878301
86.898803	934.676365	0.425402	0.054723	1.887099
87.774127	945.655057	0.430406	0.054556	1.895925
88.430175	956.704939	0.435411	0.054431	1.904706
89.247200	967.732967	0.440416	0.054275	1.913472
90.003667	978.789226	0.445421	0.054130	1.922203
90.717743	989.817845	0.450425	0.053993	1.930863
91.599581	1000.824840	0.455430	0.053825	1.939511
92.237236	1011.904223	0.460435	0.053703	1.948111
92.678980	1022.959973	0.465439	0.053617	1.956603
93.270203	1033.980876	0.470444	0.053503	1.965072
93.748842	1045.033091	0.475449	0.053411	1.973498
94.627356	1056.018034	0.480454	0.053243	1.981941
95.150575	1067.074338	0.485458	0.053142	1.990310
96.052304	1078.098799	0.490463	0.052970	1.998717
96.313578	1089.172191	0.495468	0.052919	2.006961
96.949352	1100.199112	0.500472	0.052796	2.015233
97.376718	1111.216651	0.505477	0.052714	2.023410
98.267727	1122.209046	0.510482	0.052544	2.031653
99.025111	1133.239964	0.515487	0.052399	2.039856
99.638584	1144.303309	0.520491	0.052281	2.048014
100.670325	1155.288339	0.525496	0.052085	2.056186
101.179245	1166.384729	0.530501	0.051986	2.064277
101.748772	1177.396222	0.535506	0.051877	2.072290
102.459039	1188.415404	0.540510	0.051741	2.080312
103.158918	1199.425632	0.545515	0.051607	2.088294
103.833414	1210.522092	0.550520	0.051477	2.096300
104.047974	1221.534460	0.555524	0.051434	2.104106
104.714341	1232.545826	0.560529	0.051307	2.111990
105.293850	1243.577730	0.565534	0.051195	2.119838
105.962990	1254.576648	0.570539	0.051067	2.127655
106.605152	1265.648320	0.575543	0.050944	2.135487
106.839582	1276.712820	0.580548	0.050897	2.143190
107.545554	1287.637299	0.585553	0.050762	2.150879
108.233733	1298.728070	0.590558	0.050630	2.158650
108.994345	1309.715924	0.595562	0.050485	2.166340
109.778911	1320.775116	0.600567	0.050335	2.174056
110.195469	1331.827253	0.605572	0.050254	2.181655
110.749135	1342.840677	0.610576	0.050147	2.189233
111.204016	1353.870502	0.615581	0.050059	2.196773
111.819182	1364.871684	0.620586	0.049941	2.204304
112.788526	1375.879966	0.625591	0.049756	2.211894
113.259905	1386.956820	0.630595	0.049665	2.219392
113.625765	1397.991815	0.635600	0.049594	2.226812
114.244889	1409.008102	0.640605	0.049475	2.234252
114.794053	1420.005225	0.645610	0.049369	2.241639
115.724822	1431.029230	0.650614	0.049192	2.249103
116.069493	1442.123690	0.655619	0.049124	2.256460
116.460692	1453.125584	0.660624	0.049048	2.263742
116.834632	1464.144660	0.665628	0.048975	2.271008
117.377876	1475.155763	0.670633	0.048870	2.278283
117.926785	1486.169468	0.675638	0.048765	2.285537
118.718067	1497.182182	0.680643	0.048614	2.292819
119.213489	1508.243035	0.685647	0.048518	2.300045
119.653025	1519.277984	0.690652	0.048433	2.307221
120.223223	1530.273683	0.695657	0.048323	2.314376
120.652045	1541.331073	0.700661	0.048240	2.321519
121.198637	1552.327243	0.705666	0.048134	2.328625
121.644590	1563.384934	0.710671	0.048048	2.335727
122.100836	1574.385266	0.715676	0.047960	2.342774
122.648863	1585.417048	0.720680	0.047854	2.349838
123.022327	1596.441717	0.725685	0.047781	2.356841
123.539565	1607.460143	0.730690	0.047682	2.363848
123.986069	1618.514467	0.735695	0.047595	2.370842
124.365325	1629.523682	0.740699	0.047521	2.377773
124.634638	1640.553090	0.745704	0.047468	2.384675
125.061060	1651.577163	0.750709	0.047385	2.391584
125.670396	1662.543821	0.755713	0.047268	2.398476
126.947587	1673.541632	0.760718	0.047026	2.405502
127.517485	1684.626825	0.765723	0.046916	2.412418
127.954282	1695.669167	0.770728	0.046831	2.419261
128.346146	1706.678779	0.775732	0.046755	2.426056
129.072390	1717.686116	0.780737	0.046616	2.432897
129.711853	1728.695517	0.785742	0.046493	2.439703
130.502481	1739.731782	0.790747	0.046342	2.446535
130.970294	1750.772630	0.795751	0.046252	2.453287
131.403242	1761.795987	0.800756	0.046168	2.460003
131.685547	1772.830588	0.805761	0.046112	2.466678
132.426073	1783.830985	0.810765	0.045970	2.473404
132.941267	1794.841397	0.815770	0.045871	2.480074
133.539980	1805.899371	0.820775	0.045756	2.486770
134.079503	1816.913813	0.825780	0.045652	2.493410
134.542001	1827.923798	0.830784	0.045562	2.500016
135.219787	1838.930626	0.835789	0.045433	2.506643
135.638719	1850.015586	0.840794	0.045351	2.513248
135.959588	1860.983274	0.845799	0.045288	2.519749
136.521320	1872.031590	0.850803	0.045180	2.526326
136.927422	1883.067366	0.855808	0.045101	2.532849
137.435426	1894.050081	0.860813	0.045003	2.539344
137.878635	1905.099549	0.865817	0.044917	2.545848
138.310014	1916.129149	0.870822	0.044834	2.552322
138.738946	1927.122464	0.875827	0.044750	2.558758
139.008851	1938.196199	0.880832	0.044697	2.565194
139.395079	1949.182104	0.885836	0.044622	2.571585
140.261362	1960.216102	0.890841	0.044457	2.578077
140.853976	1971.206641	0.895846	0.044343	2.584476
141.283913	1982.246627	0.900850	0.044259	2.590858
141.458533	1993.303713	0.905855	0.044224	2.597187
141.777546	2004.299027	0.910860	0.044161	2.603492
142.241771	2015.300784	0.915865	0.044071	2.609812
142.636374	2026.323684	0.920869	0.043995	2.616116
143.274566	2037.330636	0.925874	0.043872	2.622439
143.615150	2048.389674	0.930879	0.043805	2.628723
143.972605	2059.351634	0.935884	0.043736	2.634940
144.858372	2070.356307	0.940888	0.043567	2.641261
145.247385	2081.418888	0.945893	0.043491	2.647510
145.737264	2092.444854	0.950898	0.043396	2.653742
146.014575	2103.461653	0.955902	0.043342	2.659916
146.451745	2114.476661	0.960907	0.043257	2.666103
146.793075	2125.503124	0.965912	0.043190	2.672265
147.045968	2136.543959	0.970917	0.043140	2.678406
147.226066	2147.547895	0.975921	0.043103	2.684499
147.754069	2158.564579	0.980926	0.043001	2.690646
147.953695	2169.585207	0.985931	0.042961	2.696724
148.567923	2180.588291	0.990936	0.042843	2.702850
148.981679	2191.596363	0.995940	0.042763	2.708930
149.437843	2202.638691	1.000945	0.042675	2.715023
149.979688	2213.646588	1.005950	0.042570	2.721098
150.351358	2224.711548	1.010954	0.042498	2.727161
150.775162	2235.709503	1.015959	0.042416	2.733183
151.194377	2246.698385	1.020964	0.042334	2.739186
151.718717	2257.732813	1.025969	0.042233	2.745218
152.115884	2268.782711	1.030973	0.042156	2.751223
152.480267	2279.774301	1.035978	0.042085	2.757179
152.889451	2290.798846	1.040983	0.042005	2.763147
153.122486	2301.837387	1.045988	0.041959	2.769079
153.538352	2312.842655	1.050992	0.041878	2.775012
153.922336	2323.854928	1.055997	0.041803	2.780930
154.167856	2334.907909	1.061002	0.041754	2.786835
154.633918	2345.877401	1.066006	0.041664	2.792719
155.233140	2356.904201	1.071011	0.041549	2.798642
155.576217	2367.946016	1.076016	0.041482	2.804519
156.081900	2378.953653	1.081021	0.041384	2.810392
156.542979	2389.975004	1.086025	0.041295	2.816253
157.129777	2400.999897	1.091030	0.041182	2.822124
157.558286	2411.998978	1.096035	0.041099	2.827943
158.051690	2423.032257	1.101039	0.041004	2.833778
158.567924	2434.042784	1.106044	0.040904	2.839593
159.020522	2445.089001	1.111049	0.040817	2.845404
159.120537	2456.120968	1.116054	0.040795	2.851140
159.541081	2467.107594	1.121058	0.040713	2.856892
159.712646	2478.135667	1.126063	0.040678	2.862613
160.255049	2489.134652	1.131068	0.040574	2.868367
160.584286	2500.183202	1.136073	0.040509	2.874102
161.097459	2511.189036	1.141077	0.040410	2.879831
161.427246	2522.215265	1.146082	0.040346	2.885531
161.773775	2533.260990	1.151087	0.040278	2.891232
162.047952	2544.249476	1.156091	0.040224	2.896882
162.638974	2555.245355	1.161096	0.040110	2.902573
162.930494	2566.290161	1.166101	0.040053	2.908231
163.400804	2577.290966	1.171106	0.039962	2.913884
163.867785	2588.302359	1.176110	0.039872	2.919530
164.379560	2599.333056	1.181115	0.039773	2.925183
164.811187	2610.372367	1.186120	0.039689	2.930816
165.017741	2621.393449	1.191125	0.039648	2.936394
165.426133	2632.378545	1.196129	0.039568	2.941975
165.681074	2643.424238	1.201134	0.039518	2.947551
165.945132	2654.446535	1.206139	0.039465	2.953107
166.275972	2665.482103	1.211143	0.039401	2.958669
166.768360	2676.438973	1.216148	0.039305	2.964206
167.337655	2687.488385	1.221153	0.039196	2.969790
167.747187	2698.506389	1.226158	0.039116	2.975324
168.290537	2709.525641	1.231162	0.039012	2.980868
168.671961	2720.547459	1.236167	0.038937	2.986379
169.106291	2731.557622	1.241172	0.038853	2.991881
169.414965	2742.576430	1.246177	0.038792	2.997359
169.900341	2753.586550	1.251181	0.038699	3.002849
170.413009	2764.610412	1.256186	0.038600	3.008339
170.809183	2775.653753	1.261191	0.038523	3.013812
171.086575	2786.658217	1.266195	0.038468	3.019238
171.640036	2797.659918	1.271200	0.038361	3.024693
171.730768	2808.713432	1.276205	0.038342	3.030096
172.133800	2819.692417	1.281210	0.038263	3.035499
172.551504	2830.752614	1.286214	0.038182	3.040933
173.193531	2841.719481	1.291219	0.038059	3.046345
173.400831	2852.775981	1.296224	0.038017	3.051728
173.669059	2863.790696	1.301228	0.037964	3.057090
174.059068	2874.767944	1.306233	0.037888	3.062441
174.463781	2885.822729	1.311238	0.037810	3.067823
174.780885	2896.825988	1.316243	0.037747	3.073158
175.240575	2907.875922	1.321247	0.037658	3.078526
175.462806	2918.866931	1.326252	0.037614	3.083823
175.929538	2929.899796	1.331257	0.037524	3.089165
176.455555	2940.884263	1.336262	0.037422	3.094484
176.789895	2951.937858	1.341266	0.037357	3.099799
177.226749	2962.926543	1.346271	0.037272	3.105088
177.545770	2973.974597	1.351276	0.037210	3.110380
177.758504	2984.961878	1.356280	0.037167	3.115619
178.194569	2996.006839	1.361285	0.037082	3.120907
178.517598	3007.002545	1.366290	0.037019	3.126148
179.086411	3018.023368	1.371295	0.036910	3.131426
179.235513	3029.062352	1.376299	0.036879	3.136645
179.632319	3040.060240	1.381304	0.036802	3.141870
179.958710	3051.079599	1.386309	0.036738	3.147087
180.252470	3062.101841	1.391314	0.036680	3.152292
180.764352	3073.109967	1.396318	0.036581	3.157512
180.828522	3084.168484	1.401323	0.036566	3.162685
181.132125	3095.138827	1.406328	0.036507	3.167841
181.637135	3106.163719	1.411332	0.036409	3.173042
181.850915	3117.195590	1.416337	0.036366	3.178197
182.493591	3128.183586	1.421342	0.036243	3.183382
182.815162	3139.229941	1.426347	0.036180	3.188543
183.001088	3150.259763	1.431351	0.036142	3.193668
183.407177	3161.236590	1.436356	0.036063	3.198791
183.713014	3172.287730	1.441361	0.036003	3.203926
184.256628	3183.285063	1.446366	0.035898	3.209060
184.576559	3194.313190	1.451370	0.035836	3.214169
184.755021	3205.326016	1.456375	0.035799	3.219245
185.027944	3216.357673	1.461380	0.035746	3.224334
185.150532	3227.365180	1.466384	0.035720	3.229384
185.745986	3238.360651	1.471389	0.035605	3.234483
186.538270	3249.363111	1.476394	0.035454	3.239603
187.158617	3260.378528	1.481399	0.035335	3.244697
187.705148	3271.431133	1.486403	0.035230	3.249791
188.071524	3282.438555	1.491408	0.035158	3.254833
188.685703	3293.430003	1.496413	0.035040	3.259892
189.551710	3304.446161	1.501417	0.034875	3.264987
190.028862	3315.482142	1.506422	0.034783	3.270032
190.557210	3326.513333	1.511427	0.034681	3.275074
190.621612	3337.533402	1.516432	0.034666	3.280043
191.323418	3348.531510	1.521436	0.034532	3.285076
191.753880	3359.567083	1.526441	0.034448	3.290084
192.133055	3370.578788	1.531446	0.034374	3.295067
192.293941	3381.602165	1.536451	0.034341	3.300019
192.401079	3392.635225	1.541455	0.034318	3.304961
192.778913	3403.608430	1.546460	0.034245	3.309904
193.418140	3414.648830	1.551465	0.034122	3.314902
193.825666	3425.640384	1.556469	0.034043	3.319842
194.401473	3436.690238	1.561474	0.033932	3.324821
194.625253	3447.709222	1.566479	0.033887	3.329735
194.989918	3458.693445	1.571484	0.033816	3.334644
195.509323	3469.714675	1.576488	0.033716	3.339581
195.966695	3480.748353	1.581493	0.033628	3.344508
196.331667	3491.756132	1.586498	0.033556	3.349406
196.711112	3502.789781	1.591503	0.033482	3.354309
196.782180	3513.811828	1.596507	0.033466	3.359161
197.090773	3524.822771	1.601512	0.033406	3.364031
197.284662	3535.847352	1.606517	0.033367	3.368886
197.742024	3546.818872	1.611521	0.033278	3.373743
198.239805	3557.855354	1.616526	0.033182	3.378626
198.524485	3568.882927	1.621531	0.033126	3.383472
198.910653	3579.885204	1.626536	0.033051	3.388312
199.252906	3590.910872	1.631540	0.032984	3.393150
199.942625	3601.897746	1.636545	0.032852	3.398007
200.410333	3612.949431	1.641550	0.032761	3.402858
200.610663	3623.968723	1.646555	0.032721	3.407655
200.829578	3634.970381	1.651559	0.032677	3.412440
201.394003	3645.977406	1.656564	0.032568	3.417262
201.887534	3657.002894	1.661569	0.032473	3.422077
202.226743	3668.021329	1.666573	0.032407	3.426863
202.606179	3679.061745	1.671578	0.032333	3.431657
202.868830	3690.056567	1.676583	0.032281	3.436411
203.280493	3701.075050	1.681588	0.032201	3.441186
203.584578	3712.104039	1.686592	0.032141	3.445945
204.237896	3723.084732	1.691597	0.032016	3.450719
204.470703	3734.128091	1.696602	0.031969	3.455463
204.840720	3745.154794	1.701606	0.031897	3.460210
205.234408	3756.142045	1.706611	0.031820	3.464936
205.531864	3767.151379	1.711616	0.031762	3.469654
206.283088	3778.161293	1.716621	0.031618	3.474418
206.764926	3789.222876	1.721625	0.031525	3.479167
207.159931	3800.206632	1.726630	0.031448	3.483865
207.427569	3811.264203	1.731635	0.031395	3.488574
207.718028	3822.236785	1.736640	0.031338	3.493243
208.005395	3833.277006	1.741644	0.031281	3.497934
208.396893	3844.258572	1.746649	0.031205	3.502605
209.069675	3855.304462	1.751654	0.031076	3.507330
209.142115	3866.320981	1.756658	0.031060	3.511967
209.512740	3877.349658	1.761663	0.030988	3.516638
209.829037	3888.334351	1.766668	0.030926	3.521277
210.201174	3899.380575	1.771673	0.030853	3.525942
210.370290	3910.392372	1.776677	0.030819	3.530564
210.640959	3921.418844	1.781682	0.030765	3.535197
210.758358	3932.418464	1.786687	0.030740	3.539795
211.219809	3943.414211	1.791692	0.030651	3.544425
211.936845	3954.425388	1.796696	0.030514	3.549083
212.271471	3965.468687	1.801701	0.030448	3.553706
212.683548	3976.488403	1.806706	0.030368	3.558322
213.070421	3987.497932	1.811710	0.030293	3.562924
213.296714	3998.503446	1.816715	0.030248	3.567501
213.717777	4009.510128	1.821720	0.030166	3.572094
214.031255	4020.533070	1.826725	0.030104	3.576676
214.423604	4031.549978	1.831729	0.030028	3.581258
214.662000	4042.593873	1.836734	0.029980	3.585828
214.856155	4053.603894	1.841739	0.029941	3.590374
215.168758	4064.590193	1.846744	0.029880	3.594917
215.627865	4075.619266	1.851748	0.029791	3.599488
215.881241	4086.639223	1.856753	0.029741	3.604027
216.310673	4097.677439	1.861758	0.029657	3.608586
216.515455	4108.721136	1.866762	0.029616	3.613118
217.019631	4119.738093	1.871767	0.029519	3.617666
217.258259	4130.724306	1.876772	0.029472	3.622166
217.926796	4141.755886	1.881777	0.029343	3.626726
218.206384	4152.790798	1.886781	0.029288	3.631239
218.414633	4163.797815	1.891786	0.029246	3.635727
218.645413	4174.791831	1.896791	0.029200	3.640207
219.147838	4185.825624	1.901795	0.029103	3.644727
219.406826	4196.838328	1.906800	0.029052	3.649207
219.638006	4207.864413	1.911805	0.029006	3.653683
219.845209	4218.875702	1.916810	0.028964	3.658145
220.024039	4229.905007	1.921814	0.028928	3.662606
220.456911	4240.897254	1.926819	0.028844	3.667074
220.931899	4251.918639	1.931824	0.028752	3.671552
221.382297	4262.927676	1.936829	0.028665	3.676017
221.635025	4273.946323	1.941833	0.028615	3.680460
221.950449	4284.982342	1.946838	0.028553	3.684910
222.304693	4295.973361	1.951843	0.028484	3.689342
222.660306	4306.972074	1.956847	0.028414	3.693771
223.208103	4318.020176	1.961852	0.028309	3.698234
223.796118	4329.019060	1.966857	0.028196	3.702677
224.195048	4340.052776	1.971862	0.028118	3.707108
224.391636	4351.030974	1.976866	0.028078	3.711491
224.933517	4362.060653	1.981871	0.027974	3.715925
225.199110	4373.092358	1.986876	0.027921	3.720326
225.769243	4384.117363	1.991881	0.027812	3.724750
225.993584	4395.105175	1.996885	0.027767	3.729119
226.416907	4406.132743	2.001890	0.027685	3.733518
226.551779	4417.149464	2.006895	0.027657	3.737879
