Wed Nov 23 17:50:12 2022

Number of Points = 2200
Depth (nm)	Load (µN)	Time (s)	Depth (V)	Load (V)
-5.481565	-0.667652	0.000000	0.016591	1.008658
0.000000	6.274146	0.005005	0.015561	1.021664
2.693755	16.189595	0.010009	0.015053	1.037263
4.464428	27.226217	0.015014	0.014718	1.053719
5.761399	38.463754	0.020019	0.014472	1.069957
6.984719	49.622698	0.025024	0.014239	1.085807
8.083104	60.814984	0.030028	0.014031	1.101411
9.247670	71.935223	0.035033	0.013809	1.116734
10.050317	83.156810	0.040038	0.013656	1.131806
10.782268	94.306530	0.045043	0.013516	1.146555
11.433028	105.473023	0.050047	0.013391	1.161099
11.931351	116.581160	0.055052	0.013295	1.175320
12.816290	127.647112	0.060057	0.013126	1.189493
13.542135	138.755198	0.065061	0.012987	1.203480
14.275696	149.891866	0.070066	0.012847	1.217342
14.683393	161.029357	0.075071	0.012767	1.230907
15.424218	172.093504	0.080076	0.012626	1.244381
16.096552	183.188936	0.085080	0.012497	1.257718
16.702076	194.271458	0.090085	0.012380	1.270870
17.343522	205.388526	0.095090	0.012257	1.283943
17.837285	216.504767	0.100094	0.012162	1.296821
18.269809	227.642178	0.105099	0.012078	1.309571
18.804306	238.663122	0.110104	0.011975	1.322109
19.302162	249.741269	0.115109	0.011879	1.334578
20.009851	260.772604	0.120113	0.011743	1.346963
20.451040	271.904704	0.125118	0.011658	1.359239
26.232437	281.255997	0.130123	0.010570	1.371572
42.714692	291.530121	0.135128	0.007475	1.388885
43.580794	304.723476	0.140132	0.007309	1.403109
44.424432	316.102518	0.145137	0.007148	1.415298
45.361021	327.208069	0.150142	0.006970	1.427135
46.281515	338.266635	0.155146	0.006794	1.438821
47.478050	349.303776	0.160151	0.006567	1.450491
48.334905	360.416541	0.165156	0.006404	1.462020
49.316622	371.455233	0.170161	0.006217	1.473429
50.229667	382.540925	0.175165	0.006043	1.484773
51.420661	393.538926	0.180170	0.005816	1.496041
52.268346	404.661767	0.185175	0.005655	1.507226
53.315874	415.693642	0.190180	0.005455	1.518310
54.319216	426.763200	0.195184	0.005264	1.529334
55.334950	437.827664	0.200189	0.005071	1.540278
56.198187	448.901161	0.205194	0.004906	1.551100
57.335350	459.902066	0.210198	0.004690	1.561872
58.403836	470.968396	0.215203	0.004487	1.572607
59.231840	482.091406	0.220208	0.004329	1.583241
60.133896	493.082571	0.225213	0.004157	1.593707
61.157513	504.163885	0.230217	0.003962	1.604226
62.145328	515.206424	0.235222	0.003774	1.614630
63.266392	526.232059	0.240227	0.003561	1.624994
63.956079	537.336975	0.245232	0.003429	1.635225
64.595976	548.406779	0.250236	0.003306	1.645345
65.792066	559.340220	0.255241	0.003079	1.655457
66.821511	570.445068	0.260246	0.002883	1.665606
67.506948	581.510515	0.265250	0.002751	1.675551
68.558370	592.556756	0.270255	0.002551	1.685534
69.262035	603.608529	0.275260	0.002417	1.695355
70.267896	614.636277	0.280265	0.002225	1.705191
70.990991	625.710007	0.285269	0.002087	1.714924
72.027959	636.704757	0.290274	0.001889	1.724629
72.738936	647.800807	0.295279	0.001753	1.734267
73.739126	658.811794	0.300283	0.001563	1.743866
74.305279	669.885351	0.305288	0.001454	1.753336
75.164689	680.921325	0.310293	0.001290	1.762810
76.064175	691.949618	0.315298	0.001118	1.772238
76.843648	703.009199	0.320302	0.000969	1.781607
77.498535	714.064273	0.325307	0.000844	1.790886
78.393802	725.050548	0.330312	0.000673	1.800131
79.213981	736.117059	0.335317	0.000516	1.809371
80.146556	747.141912	0.340321	0.000339	1.818562
80.883111	758.196533	0.345326	0.000198	1.827675
81.714309	769.236563	0.350331	0.000039	1.836758
82.440391	780.283083	0.355335	-0.000100	1.845771
83.349084	791.319984	0.360340	-0.000273	1.854783
83.776911	802.379872	0.365345	-0.000356	1.863637
84.658749	813.380050	0.370350	-0.000524	1.872527
85.678907	824.386357	0.375354	-0.000719	1.881416
86.576605	835.451929	0.380359	-0.000890	1.890276
87.355132	846.489592	0.385364	-0.001039	1.899040
88.279168	857.528029	0.390369	-0.001215	1.907804
88.875787	868.601806	0.395373	-0.001329	1.916467
89.797353	879.566191	0.400378	-0.001505	1.925093
90.729095	890.631305	0.405383	-0.001683	1.933760
91.573466	901.667288	0.410387	-0.001844	1.942342
92.086642	912.714879	0.415392	-0.001943	1.950809
93.286615	923.694892	0.420397	-0.002171	1.959366
93.904554	934.798983	0.425402	-0.002289	1.967829
94.789874	945.793283	0.430406	-0.002458	1.976241
95.223078	956.890569	0.435411	-0.002542	1.984579
95.787084	967.902010	0.440416	-0.002651	1.992851
96.363278	978.922577	0.445421	-0.002762	2.001099
97.323462	989.927756	0.450425	-0.002945	2.009398
97.944224	1000.982766	0.455430	-0.003064	2.017613
98.799879	1012.005144	0.460435	-0.003227	2.025830
99.290763	1023.069455	0.465439	-0.003322	2.033954
100.022537	1034.082923	0.470444	-0.003462	2.042067
100.629464	1045.134305	0.475449	-0.003579	2.050145
101.565374	1056.121349	0.480454	-0.003757	2.058225
102.156941	1067.183990	0.485458	-0.003871	2.066244
102.796441	1078.229613	0.490463	-0.003993	2.074230
103.182236	1089.282377	0.495468	-0.004068	2.082130
103.950315	1100.268763	0.500472	-0.004215	2.090044
104.409617	1111.329931	0.505477	-0.004304	2.097907
105.258385	1122.291847	0.510482	-0.004466	2.105764
106.284617	1133.329424	0.515487	-0.004661	2.113686
107.052995	1144.367862	0.520491	-0.004808	2.121518
107.677553	1155.427433	0.525496	-0.004928	2.129301
108.301976	1166.476415	0.530501	-0.005048	2.137049
108.919910	1177.458679	0.535506	-0.005167	2.144721
109.802517	1188.499301	0.540510	-0.005335	2.152466
110.125961	1199.583893	0.545515	-0.005399	2.160085
110.846530	1210.538564	0.550520	-0.005537	2.167680
111.603609	1221.605998	0.555524	-0.005681	2.175332
112.387769	1232.595958	0.560529	-0.005831	2.182911
112.756526	1243.673463	0.565534	-0.005903	2.190429
113.399333	1254.693064	0.570539	-0.006027	2.197944
113.968778	1265.705157	0.575543	-0.006136	2.205411
114.702995	1276.735890	0.580548	-0.006277	2.212902
115.110576	1287.766600	0.585553	-0.006356	2.220295
115.721146	1298.788374	0.590558	-0.006473	2.227702
116.109833	1309.858925	0.595562	-0.006549	2.235068
116.716718	1320.841696	0.600567	-0.006665	2.242399
117.136787	1331.892734	0.605572	-0.006747	2.249711
117.927612	1342.890115	0.610576	-0.006898	2.257044
118.257116	1353.960480	0.615581	-0.006963	2.264300
118.817943	1364.935923	0.620586	-0.007071	2.271522
119.318215	1375.978382	0.625591	-0.007167	2.278751
119.970915	1386.991273	0.630595	-0.007292	2.285971
120.766938	1398.002270	0.635600	-0.007444	2.293196
121.913375	1408.998632	0.640605	-0.007662	2.300464
122.395699	1420.075762	0.645610	-0.007756	2.307620
122.953687	1431.128668	0.650614	-0.007863	2.314754
123.241837	1442.139521	0.655619	-0.007920	2.321782
123.752236	1453.158478	0.660624	-0.008018	2.328841
124.208686	1464.210958	0.665628	-0.008107	2.335888
124.718739	1475.187792	0.670633	-0.008205	2.342877
125.344164	1486.233022	0.675638	-0.008325	2.349912
126.166415	1497.219874	0.680643	-0.008482	2.356930
126.845280	1508.270586	0.685647	-0.008612	2.363937
127.588309	1519.285526	0.690652	-0.008754	2.370914
128.059342	1530.336319	0.695657	-0.008846	2.377837
128.698819	1541.357146	0.700661	-0.008968	2.384756
129.059479	1552.380436	0.705666	-0.009039	2.391599
129.539702	1563.421770	0.710671	-0.009132	2.398458
130.250303	1574.399191	0.715676	-0.009268	2.405304
131.019862	1585.450448	0.720680	-0.009415	2.412188
131.330317	1596.481842	0.725685	-0.009476	2.418948
131.838791	1607.496901	0.730690	-0.009574	2.425718
132.326502	1618.530383	0.735695	-0.009668	2.432477
132.778371	1629.547844	0.740699	-0.009756	2.439200
133.154778	1640.571099	0.745704	-0.009829	2.445893
133.935467	1651.578811	0.750709	-0.009978	2.452637
134.407848	1662.613223	0.755713	-0.010070	2.459319
135.018778	1673.637326	0.760718	-0.010187	2.466002
135.739787	1684.620555	0.765723	-0.010325	2.472665
136.096561	1695.716473	0.770728	-0.010395	2.479306
136.434255	1706.707851	0.775732	-0.010461	2.485864
137.191156	1717.727969	0.780737	-0.010605	2.492501
137.669623	1728.740836	0.785742	-0.010698	2.499064
138.197221	1739.778332	0.790747	-0.010800	2.505632
138.499857	1750.819864	0.795751	-0.010859	2.512143
139.369244	1761.781588	0.800756	-0.011025	2.518698
139.997368	1772.818721	0.805761	-0.011146	2.525234
140.937282	1783.842150	0.810765	-0.011325	2.531803
141.332021	1794.889394	0.815770	-0.011402	2.538267
141.736339	1805.928138	0.820775	-0.011480	2.544711
142.112001	1816.937603	0.825780	-0.011553	2.551116
142.779714	1827.938834	0.830784	-0.011681	2.557555
143.132123	1839.000963	0.835789	-0.011750	2.563954
143.645257	1849.987232	0.840794	-0.011849	2.570323
144.089565	1861.084776	0.845799	-0.011935	2.576727
144.637928	1872.049241	0.850803	-0.012041	2.583059
145.265168	1883.017150	0.855808	-0.012161	2.589391
145.884920	1894.088963	0.860813	-0.012280	2.595765
146.221424	1905.117811	0.865817	-0.012346	2.602047
146.717395	1916.122172	0.870822	-0.012442	2.608329
147.103356	1927.157750	0.875827	-0.012517	2.614594
147.858151	1938.145991	0.880832	-0.012662	2.620883
148.123562	1949.207410	0.885836	-0.012714	2.627111
148.584789	1960.200169	0.890841	-0.012803	2.633320
149.298708	1971.214564	0.895846	-0.012940	2.639571
149.675042	1982.271122	0.900850	-0.013013	2.645771
150.074697	1993.282319	0.905855	-0.013091	2.651935
150.523033	2004.303067	0.910860	-0.013178	2.658099
151.223348	2015.278482	0.915865	-0.013312	2.664268
151.649934	2026.360288	0.920869	-0.013395	2.670432
152.047132	2037.347047	0.925874	-0.013472	2.676526
152.687599	2048.373162	0.930879	-0.013595	2.682668
153.012478	2059.375793	0.935884	-0.013659	2.688730
153.831120	2070.361217	0.940888	-0.013815	2.694853
154.305209	2081.413647	0.945893	-0.013907	2.700939
155.032848	2092.417955	0.950898	-0.014046	2.707029
155.369817	2103.488528	0.955902	-0.014112	2.713074
155.736980	2114.476264	0.960907	-0.014184	2.719066
156.204671	2125.486675	0.965912	-0.014274	2.725074
156.753952	2136.523672	0.970917	-0.014380	2.731097
157.212672	2147.540145	0.975921	-0.014469	2.737080
157.594236	2158.573976	0.980926	-0.014543	2.743046
157.865004	2169.583912	0.985931	-0.014597	2.748968
158.481519	2180.592353	0.990936	-0.014715	2.754934
158.793641	2191.633091	0.995940	-0.014776	2.760853
159.322103	2202.622012	1.000945	-0.014878	2.766768
160.012941	2213.642852	1.005950	-0.015011	2.772714
160.435799	2224.678349	1.010954	-0.015093	2.778610
160.772120	2235.697781	1.015959	-0.015158	2.784472
161.310037	2246.717266	1.020964	-0.015262	2.790354
161.611759	2257.739492	1.025969	-0.015321	2.796186
162.171443	2268.768145	1.030973	-0.015429	2.802051
162.388827	2279.797165	1.035978	-0.015473	2.807849
163.009629	2290.773155	1.040983	-0.015592	2.813672
163.636419	2301.781601	1.045988	-0.015712	2.819501
164.310210	2312.831536	1.050992	-0.015841	2.825346
164.875852	2323.846985	1.055997	-0.015950	2.831144
165.383013	2334.882036	1.061002	-0.016048	2.836931
165.832701	2345.887139	1.066006	-0.016135	2.842682
166.286297	2356.911437	1.071011	-0.016223	2.848431
166.572167	2367.942796	1.076016	-0.016279	2.854145
167.152171	2378.924852	1.081021	-0.016391	2.859870
167.664757	2389.976620	1.086025	-0.016490	2.865607
167.785226	2401.032903	1.091030	-0.016515	2.871274
168.136555	2411.997929	1.096035	-0.016584	2.876919
168.315753	2423.058033	1.101039	-0.016620	2.882575
169.038702	2434.006501	1.106044	-0.016759	2.888247
169.476994	2445.097889	1.111049	-0.016844	2.893936
169.916356	2456.072285	1.116054	-0.016929	2.899555
170.496125	2467.104152	1.121058	-0.017040	2.905214
170.999015	2478.115962	1.126063	-0.017137	2.910839
171.508528	2489.132106	1.131068	-0.017236	2.916457
171.971556	2500.159364	1.136073	-0.017325	2.922062
172.484941	2511.166787	1.141077	-0.017424	2.927655
172.970152	2522.203185	1.146082	-0.017518	2.933246
173.240581	2533.229475	1.151087	-0.017572	2.938789
173.548986	2544.235240	1.156091	-0.017632	2.944317
174.203955	2555.235395	1.161096	-0.017758	2.949884
174.839934	2566.245213	1.166101	-0.017880	2.955443
175.340289	2577.301189	1.171106	-0.017977	2.960993
175.903069	2588.298262	1.176110	-0.018085	2.966513
176.331805	2599.346877	1.181115	-0.018168	2.972028
176.560638	2610.343027	1.186120	-0.018214	2.977477
177.098287	2621.364244	1.191125	-0.018317	2.982975
177.547676	2632.374433	1.196129	-0.018404	2.988443
178.149191	2643.382425	1.201134	-0.018520	2.993923
178.669347	2654.415306	1.206139	-0.018620	2.999393
179.298382	2665.427201	1.211143	-0.018741	3.004858
179.683052	2676.456295	1.216148	-0.018816	3.010286
180.100792	2687.484231	1.221153	-0.018897	3.015708
180.450909	2698.499965	1.226158	-0.018966	3.021105
180.912455	2709.503045	1.231162	-0.019055	3.026502
181.282587	2720.536198	1.236167	-0.019127	3.031890
181.731494	2731.547707	1.241172	-0.019214	3.037270
182.053470	2742.552960	1.246177	-0.019277	3.042619
182.659019	2753.582294	1.251181	-0.019393	3.048011
183.065481	2764.611799	1.256186	-0.019472	3.053364
183.502191	2775.620804	1.261191	-0.019557	3.058703
183.831611	2786.654030	1.266195	-0.019622	3.064029
184.278700	2797.654157	1.271200	-0.019708	3.069346
184.428442	2808.690750	1.276205	-0.019739	3.074629
184.846370	2819.694465	1.281210	-0.019820	3.079925
185.319801	2830.699146	1.286214	-0.019912	3.085220
185.801752	2841.743125	1.291219	-0.020005	3.090526
186.043584	2852.745026	1.296224	-0.020053	3.095769
186.363720	2863.775743	1.301228	-0.020116	3.101028
186.757410	2874.761423	1.306233	-0.020193	3.106267
187.401400	2885.772469	1.311238	-0.020316	3.111543
187.899932	2896.806584	1.316243	-0.020412	3.116801
188.424174	2907.826340	1.321247	-0.020513	3.122047
188.730932	2918.868520	1.326252	-0.020574	3.127264
189.097596	2929.875130	1.331257	-0.020645	3.132465
189.454529	2940.883214	1.336262	-0.020715	3.137656
189.819394	2951.898201	1.341266	-0.020786	3.142842
190.344617	2962.923023	1.346271	-0.020887	3.148047
190.702562	2973.947064	1.351276	-0.020957	3.153219
191.067544	2984.957899	1.356280	-0.021029	3.158378
191.340502	2995.988389	1.361285	-0.021082	3.163525
191.895450	3006.971009	1.366290	-0.021189	3.168679
192.367132	3017.995708	1.371295	-0.021281	3.173834
192.773567	3029.025983	1.376299	-0.021360	3.178973
193.203983	3040.047188	1.381304	-0.021443	3.184103
193.573325	3051.053383	1.386309	-0.021515	3.189210
194.043032	3062.087264	1.391314	-0.021606	3.194334
194.460536	3073.082197	1.396318	-0.021687	3.199426
194.970162	3084.126443	1.401323	-0.021785	3.204543
195.255850	3095.128512	1.406328	-0.021842	3.209604
195.856333	3106.125678	1.411332	-0.021957	3.214696
195.900899	3117.195227	1.416337	-0.021968	3.219740
196.495792	3128.163098	1.421342	-0.022083	3.224801
197.121301	3139.177170	1.426347	-0.022203	3.229880
197.457768	3150.224259	1.431351	-0.022269	3.234928
197.726446	3161.242147	1.436356	-0.022322	3.239945
198.075392	3172.259141	1.441361	-0.022390	3.244965
198.520222	3183.272230	1.446366	-0.022476	3.249988
199.047282	3194.263926	1.451370	-0.022578	3.255004
199.377554	3205.297589	1.456375	-0.022642	3.260005
199.819737	3216.315765	1.461380	-0.022728	3.265006
200.111758	3227.336397	1.466384	-0.022786	3.269982
200.588064	3238.333972	1.471389	-0.022878	3.274962
201.096325	3249.368320	1.476394	-0.022976	3.279956
201.707522	3260.382210	1.481399	-0.023093	3.284946
202.111670	3271.402347	1.486403	-0.023172	3.289905
202.482449	3282.412483	1.491408	-0.023244	3.294847
202.880767	3293.437317	1.496413	-0.023322	3.299792
203.298386	3304.463734	1.501417	-0.023403	3.304733
203.630787	3315.459277	1.506422	-0.023468	3.309641
203.863578	3326.495500	1.511427	-0.023514	3.314548
204.406678	3337.507783	1.516432	-0.023619	3.319476
204.819104	3348.508745	1.521436	-0.023699	3.324375
205.285927	3359.532260	1.526441	-0.023789	3.329283
205.849409	3370.563681	1.531446	-0.023898	3.334200
206.197176	3381.548212	1.536451	-0.023966	3.339062
206.593875	3392.578091	1.541455	-0.024043	3.343942
206.908624	3403.633281	1.546460	-0.024105	3.348817
207.239336	3414.618134	1.551465	-0.024169	3.353655
207.581298	3425.628192	1.556469	-0.024236	3.358499
207.989415	3436.664594	1.561474	-0.024316	3.363355
208.457814	3447.665229	1.566479	-0.024406	3.368196
208.772420	3458.690007	1.571484	-0.024468	3.373022
209.061284	3469.699185	1.576488	-0.024525	3.377831
209.599352	3480.712337	1.581493	-0.024629	3.382665
209.960061	3491.729917	1.586498	-0.024699	3.387472
210.362896	3502.749567	1.591503	-0.024777	3.392278
210.634004	3513.788645	1.596507	-0.024831	3.397070
211.035673	3524.775265	1.601512	-0.024909	3.401848
211.545188	3535.794938	1.606517	-0.025007	3.406647
212.028493	3546.818282	1.611521	-0.025101	3.411437
212.476546	3557.821467	1.616526	-0.025188	3.416207
212.850729	3568.843447	1.621531	-0.025260	3.420970
213.021903	3579.872384	1.626536	-0.025295	3.425705
213.765507	3590.864339	1.631540	-0.025438	3.430486
213.839450	3601.933746	1.636545	-0.025454	3.435214
214.528735	3612.895387	1.641550	-0.025586	3.439961
214.830857	3623.944441	1.646555	-0.025646	3.444694
215.389764	3634.955824	1.651559	-0.025753	3.449434
215.682540	3645.975146	1.656564	-0.025811	3.454140
216.083986	3656.993148	1.661569	-0.025889	3.458851
216.196698	3667.998055	1.666573	-0.025913	3.463517
216.871220	3679.006414	1.671578	-0.026042	3.468243
217.152284	3690.035388	1.676583	-0.026098	3.472926
217.522038	3701.064110	1.681588	-0.026170	3.477612
217.957284	3712.040348	1.686592	-0.026254	3.482278
218.581737	3723.086354	1.691597	-0.026374	3.486988
218.727605	3734.084209	1.696602	-0.026404	3.491617
219.102711	3745.115537	1.701606	-0.026477	3.496279
219.321847	3756.127533	1.706611	-0.026521	3.500910
219.755180	3767.154312	1.711616	-0.026605	3.505565
220.035825	3778.156812	1.716621	-0.026661	3.510186
220.441449	3789.180601	1.721625	-0.026739	3.514824
220.627414	3800.220399	1.726630	-0.026777	3.519438
221.090033	3811.208088	1.731635	-0.026866	3.524055
221.407919	3822.239293	1.736640	-0.026929	3.528668
222.004910	3833.223252	1.741644	-0.027044	3.533286
222.425895	3844.250099	1.746649	-0.027125	3.537896
222.964684	3855.249318	1.751654	-0.027229	3.542502
223.471023	3866.291788	1.756658	-0.027327	3.547116
223.859890	3877.307252	1.761663	-0.027403	3.551700
224.363940	3888.310844	1.766668	-0.027500	3.556285
224.701124	3899.326875	1.771673	-0.027566	3.560852
225.152437	3910.351799	1.776677	-0.027653	3.565428
225.562903	3921.361129	1.781682	-0.027733	3.569988
225.823807	3932.379242	1.786687	-0.027785	3.574529
226.364611	3943.388577	1.791692	-0.027889	3.579091
226.676238	3954.434767	1.796696	-0.027950	3.583637
227.187513	3965.450335	1.801701	-0.028049	3.588187
227.338919	3976.447619	1.806706	-0.028080	3.592684
227.871503	3987.460033	1.811710	-0.028183	3.597223
228.298667	3998.473419	1.816715	-0.028265	3.601746
228.701026	4009.489165	1.821720	-0.028344	3.606260
228.946047	4020.526231	1.826725	-0.028392	3.610761
229.449922	4031.525524	1.831729	-0.028490	3.615268
229.780365	4042.527066	1.836734	-0.028554	3.619753
230.214985	4053.563676	1.841739	-0.028639	3.624256
230.486039	4064.584129	1.846744	-0.028692	3.628731
230.880621	4075.592742	1.851748	-0.028769	3.633208
231.170387	4086.627449	1.856753	-0.028826	3.637678
231.509694	4097.650482	1.861758	-0.028893	3.642144
231.644000	4108.691571	1.866762	-0.028920	3.646590
232.131665	4119.691402	1.871767	-0.029015	3.651051
232.485983	4130.715228	1.876772	-0.029084	3.655502
233.001789	4141.725223	1.881777	-0.029183	3.659959
233.283170	4152.750397	1.886781	-0.029239	3.664392
233.708415	4163.760073	1.891786	-0.029321	3.668828
233.946750	4174.791630	1.896791	-0.029369	3.673248
234.449668	4185.796521	1.901795	-0.029466	3.677680
234.819907	4196.802645	1.906800	-0.029538	3.682093
235.170190	4207.830659	1.911805	-0.029607	3.686507
235.519727	4218.833791	1.916810	-0.029675	3.690906
236.084460	4229.862938	1.921814	-0.029784	3.695332
236.368858	4240.857909	1.926819	-0.029840	3.699710
236.780542	4251.909775	1.931824	-0.029920	3.704119
237.166442	4262.878159	1.936829	-0.029995	3.708487
237.678717	4273.934042	1.941833	-0.030094	3.712896
237.912072	4284.966263	1.946838	-0.030140	3.717263
238.292498	4295.945800	1.951843	-0.030214	3.721619
238.786965	4306.952012	1.956847	-0.030310	3.725992
238.962830	4317.992524	1.961852	-0.030346	3.730340
239.401034	4328.992769	1.966857	-0.030431	3.734694
239.720352	4340.002538	1.971862	-0.030493	3.739035
