Wed Nov 23 17:31:11 2022

Number of Points = 2200
Depth (nm)	Load (µN)	Time (s)	Depth (V)	Load (V)
-1.969229	0.689737	0.000000	0.098732	0.734111
0.000000	5.861960	0.005005	0.098361	0.745995
1.576458	14.230179	0.010009	0.098063	0.763657
2.792612	24.514709	0.015014	0.097832	0.784306
4.023338	35.460198	0.020019	0.097599	0.805655
5.105652	46.695102	0.025024	0.097393	0.826873
6.218944	57.978210	0.030028	0.097181	0.847664
6.976209	69.355672	0.035033	0.097036	0.867891
7.981162	80.585889	0.040038	0.096845	0.887563
8.695071	91.918260	0.045043	0.096708	0.906798
9.499151	103.162088	0.050047	0.096555	0.925544
11.878225	113.952856	0.055052	0.096105	0.944125
13.343939	125.391449	0.060057	0.095828	0.962823
15.268448	136.478716	0.065061	0.095464	0.980888
16.565126	147.839773	0.070066	0.095218	0.998686
17.708267	159.080261	0.075071	0.095000	1.015911
18.728412	170.303269	0.080076	0.094806	1.032758
19.743002	181.480803	0.085080	0.094613	1.049266
20.356460	192.732545	0.090085	0.094495	1.065414
21.180605	203.861857	0.095090	0.094338	1.081259
22.235934	214.939158	0.100094	0.094137	1.096919
23.309461	226.056871	0.105099	0.093933	1.112421
24.339249	237.221921	0.110104	0.093737	1.127751
25.265540	248.369714	0.115109	0.093560	1.142802
26.546145	259.420354	0.120113	0.093317	1.157699
27.236329	270.646248	0.125118	0.093185	1.172353
28.379922	281.701582	0.130123	0.092968	1.186821
29.217828	292.844270	0.135128	0.092808	1.201083
30.562998	303.865101	0.140132	0.092552	1.215255
31.672235	315.029529	0.145137	0.092342	1.229332
33.036205	326.066696	0.150142	0.092083	1.243208
34.420810	337.148491	0.155146	0.091820	1.256992
35.732390	348.249555	0.160151	0.091571	1.270617
37.262268	359.331172	0.165156	0.091282	1.284166
38.654364	370.449951	0.170161	0.091018	1.297557
39.512473	381.688444	0.175165	0.090854	1.310726
40.512999	392.727662	0.180170	0.090663	1.323598
41.369353	403.799112	0.185175	0.090500	1.336322
42.165964	414.911537	0.190180	0.090348	1.348947
43.247327	425.922051	0.195184	0.090142	1.361457
44.368538	437.035106	0.200189	0.089929	1.373978
45.149618	448.135696	0.205194	0.089780	1.386240
46.615353	459.085356	0.210198	0.089502	1.398497
47.693057	470.229016	0.215203	0.089297	1.410703
48.702595	481.333396	0.220208	0.089105	1.422737
49.510985	492.424400	0.225213	0.088950	1.434580
50.519508	503.470498	0.230217	0.088758	1.446354
51.186101	514.606624	0.235222	0.088631	1.457998
51.955795	525.627399	0.240227	0.088483	1.469470
52.949453	536.630799	0.245232	0.088294	1.480917
54.035913	547.718990	0.250236	0.088088	1.492393
55.476608	558.691736	0.255241	0.087815	1.503793
56.549948	569.832326	0.260246	0.087610	1.515141
57.005967	581.005237	0.265250	0.087522	1.526220
57.990552	591.948556	0.270255	0.087335	1.537180
58.829655	603.051158	0.275260	0.087174	1.548164
59.650546	614.125205	0.280265	0.087018	1.559038
60.263208	625.191588	0.285269	0.086900	1.569758
61.223635	636.199443	0.290274	0.086717	1.580467
61.829708	647.294883	0.295279	0.086601	1.591066
62.849930	658.302190	0.300283	0.086406	1.601651
63.522241	669.399246	0.305288	0.086278	1.612134
64.532578	680.410888	0.310293	0.086085	1.622581
65.428362	691.469115	0.315298	0.085914	1.632966
66.142447	702.549472	0.320302	0.085778	1.643246
66.819828	713.587792	0.325307	0.085648	1.653413
67.654176	724.629260	0.330312	0.085489	1.663569
68.162810	735.724989	0.335317	0.085390	1.673609
69.098698	746.691750	0.340321	0.085212	1.683609
70.047978	757.754541	0.345326	0.085031	1.693638
70.896861	768.813580	0.350331	0.084869	1.703573
71.597445	779.881336	0.355335	0.084735	1.713412
72.253182	790.929853	0.360340	0.084609	1.723164
72.714122	801.997827	0.365345	0.084520	1.732819
73.484610	813.008493	0.370350	0.084373	1.742464
73.867006	824.100821	0.375354	0.084298	1.752009
74.815110	835.069458	0.380359	0.084117	1.761566
75.231450	846.168582	0.385364	0.084037	1.771023
76.133665	857.160271	0.390369	0.083865	1.780483
76.784706	868.221338	0.395373	0.083740	1.789877
77.573995	879.247647	0.400378	0.083589	1.799232
78.267469	890.304463	0.405383	0.083456	1.808537
78.895734	901.367581	0.410387	0.083335	1.817779
79.133040	912.439808	0.415392	0.083288	1.826871
79.716364	923.437909	0.420397	0.083176	1.835956
80.242174	934.481221	0.425402	0.083075	1.845016
81.205937	945.442884	0.430406	0.082891	1.854088
81.695277	956.581512	0.435411	0.082796	1.863125
82.467543	967.545157	0.440416	0.082649	1.872058
83.228919	978.604149	0.445421	0.082503	1.881020
83.840611	989.657419	0.450425	0.082386	1.889894
84.369482	1000.705506	0.455430	0.082284	1.898700
85.214287	1011.703153	0.460435	0.082122	1.907510
85.667091	1022.790002	0.465439	0.082035	1.916244
86.336395	1033.801839	0.470444	0.081906	1.924938
86.871325	1044.868941	0.475449	0.081803	1.933599
87.250613	1055.912858	0.480454	0.081729	1.942162
87.757202	1066.904210	0.485458	0.081632	1.950681
88.743214	1077.909658	0.490463	0.081444	1.959299
89.287796	1088.990842	0.495468	0.081339	1.967821
90.147703	1099.970026	0.500472	0.081175	1.976312
90.902740	1111.026359	0.505477	0.081031	1.984796
91.455600	1122.098940	0.510482	0.080924	1.993204
91.931178	1133.127007	0.515487	0.080832	2.001523
92.532880	1144.146028	0.520491	0.080716	2.009833
93.151901	1155.180487	0.525496	0.080598	2.018125
93.702173	1166.244577	0.530501	0.080492	2.026387
94.180688	1177.233739	0.535506	0.080399	2.034542
94.892278	1188.254700	0.540510	0.080263	2.042746
95.418104	1199.324579	0.545515	0.080161	2.050906
96.176311	1210.323106	0.550520	0.080016	2.059039
96.608223	1221.383036	0.555524	0.079933	2.067104
97.232079	1232.399049	0.560529	0.079813	2.075153
97.805473	1243.435149	0.565534	0.079702	2.083173
98.539819	1254.429978	0.570539	0.079562	2.091171
99.129635	1265.511960	0.575543	0.079449	2.099166
99.687603	1276.516143	0.580548	0.079341	2.107067
100.182245	1287.557170	0.585553	0.079246	2.114949
100.678633	1298.595544	0.590558	0.079150	2.122801
101.195834	1309.602552	0.595562	0.079050	2.130606
101.878948	1320.630001	0.600567	0.078919	2.138436
102.303135	1331.692354	0.605572	0.078837	2.146200
102.941556	1342.683630	0.610576	0.078714	2.153938
103.407697	1353.730871	0.615581	0.078624	2.161646
104.183352	1364.746335	0.620586	0.078476	2.169376
104.830737	1375.761010	0.625591	0.078352	2.177048
105.518225	1386.803070	0.630595	0.078220	2.184721
106.032835	1397.842892	0.635600	0.078120	2.192326
106.717366	1408.860866	0.640605	0.077989	2.199928
107.242847	1419.896876	0.645610	0.077888	2.207480
107.613871	1430.958720	0.650614	0.077816	2.214988
108.051524	1441.943271	0.655619	0.077731	2.222434
108.477390	1452.994034	0.660624	0.077648	2.229897
109.011224	1464.004589	0.665628	0.077545	2.237332
109.568185	1475.043512	0.670633	0.077438	2.244766
110.012820	1486.055860	0.675638	0.077352	2.252132
110.829776	1497.077530	0.680643	0.077196	2.259563
111.422159	1508.085803	0.685647	0.077082	2.266911
112.200502	1519.112761	0.690652	0.076933	2.274288
112.739823	1530.161812	0.695657	0.076829	2.281604
113.223530	1541.195291	0.700661	0.076736	2.288873
113.794237	1552.199840	0.705666	0.076626	2.296119
114.319151	1563.252006	0.710671	0.076525	2.303363
114.656429	1574.275560	0.715676	0.076459	2.310526
115.229160	1585.282464	0.720680	0.076348	2.317706
115.436544	1596.373243	0.725685	0.076307	2.324839
115.862049	1607.343667	0.730690	0.076224	2.331921
116.399238	1618.372765	0.735695	0.076121	2.339041
116.894958	1629.404705	0.740699	0.076025	2.346133
117.168891	1640.440466	0.745704	0.075971	2.353159
117.722287	1651.421941	0.750709	0.075864	2.360188
118.256489	1662.469551	0.755713	0.075761	2.367233
118.679188	1673.536388	0.760718	0.075679	2.374247
119.026953	1684.493304	0.765723	0.075611	2.381156
119.528155	1695.547210	0.770728	0.075515	2.388136
120.225671	1706.535903	0.775732	0.075381	2.395095
120.987192	1717.564078	0.780737	0.075235	2.402072
121.301670	1728.647156	0.785742	0.075174	2.408971
121.828148	1739.637003	0.790747	0.075072	2.415836
122.320739	1750.637191	0.795751	0.074977	2.422681
122.902640	1761.688709	0.800756	0.074865	2.429556
123.217104	1772.722615	0.805761	0.074803	2.436347
123.477245	1783.768091	0.810765	0.074752	2.443115
123.770405	1794.752564	0.815770	0.074694	2.449833
124.430098	1805.778333	0.820775	0.074567	2.456631
124.809434	1816.805594	0.825780	0.074494	2.463356
125.333406	1827.823263	0.830784	0.074392	2.470084
125.694324	1838.860413	0.835789	0.074322	2.476774
125.993607	1849.913055	0.840794	0.074263	2.483443
126.202560	1860.898763	0.845799	0.074221	2.490037
126.599533	1871.937475	0.850803	0.074144	2.496681
127.170634	1882.919166	0.855808	0.074034	2.503307
128.010084	1893.935645	0.860813	0.073874	2.509988
128.202060	1905.001211	0.865817	0.073835	2.516555
128.590028	1916.028051	0.870822	0.073760	2.523120
129.000187	1927.023726	0.875827	0.073680	2.529654
129.563615	1938.047027	0.880832	0.073571	2.536216
130.149038	1949.069814	0.885836	0.073459	2.542765
130.552721	1960.106639	0.890841	0.073380	2.549270
131.000646	1971.108701	0.895846	0.073294	2.555748
131.488734	1982.151409	0.900850	0.073199	2.562239
131.842764	1993.167421	0.905855	0.073130	2.568674
132.181275	2004.261014	0.910860	0.073064	2.575134
132.278742	2015.254411	0.915865	0.073043	2.581476
132.525745	2026.247530	0.920869	0.072994	2.587829
132.829345	2037.259906	0.925874	0.072934	2.594189
133.536591	2048.223611	0.930879	0.072799	2.600579
134.089319	2059.258304	0.935884	0.072692	2.606965
134.639090	2070.308564	0.940888	0.072586	2.613343
134.644877	2081.331584	0.945893	0.072583	2.619592
135.040459	2092.340924	0.950898	0.072506	2.625889
135.439366	2103.352616	0.955902	0.072428	2.632173
136.000213	2114.381870	0.960907	0.072320	2.638480
136.309728	2125.403324	0.965912	0.072259	2.644723
136.630022	2136.432732	0.970917	0.072196	2.650957
136.868934	2147.450161	0.975921	0.072149	2.657155
137.730433	2158.425332	0.980926	0.071984	2.663426
138.075833	2169.479424	0.985931	0.071917	2.669635
138.471982	2180.512584	0.990936	0.071840	2.675826
138.745615	2191.539050	0.995940	0.071786	2.681978
139.044329	2202.549842	1.000945	0.071727	2.688111
139.359040	2213.574295	1.005950	0.071665	2.694240
139.804035	2224.570465	1.010954	0.071579	2.700363
140.057549	2235.633440	1.015959	0.071529	2.706475
140.564667	2246.637518	1.020964	0.071431	2.712584
140.748466	2257.653647	1.025969	0.071394	2.718631
141.381862	2268.630564	1.030973	0.071272	2.724720
141.835518	2279.702799	1.035978	0.071184	2.730817
142.377081	2290.687935	1.040983	0.071080	2.736867
142.617897	2301.759313	1.045988	0.071032	2.742899
142.794589	2312.763845	1.050992	0.070996	2.748871
142.976720	2323.783868	1.055997	0.070959	2.754840
143.357873	2334.793405	1.061002	0.070885	2.760823
143.685506	2345.816728	1.066006	0.070821	2.766792
144.225438	2356.816963	1.071011	0.070717	2.772771
144.873753	2367.815856	1.076016	0.070592	2.778754
145.438128	2378.850889	1.081021	0.070484	2.784730
145.724023	2389.903400	1.086025	0.070427	2.790655
146.338757	2400.877014	1.091030	0.070309	2.796581
146.896389	2411.919642	1.096035	0.070202	2.802521
147.387044	2422.948141	1.101039	0.070107	2.808429
147.631638	2433.974026	1.106044	0.070058	2.814284
148.270741	2444.980531	1.111049	0.069936	2.820180
148.523574	2455.988765	1.116054	0.069886	2.826002
148.882293	2467.056288	1.121058	0.069816	2.831860
149.171410	2478.051050	1.126063	0.069759	2.837657
149.701736	2489.041134	1.131068	0.069656	2.843478
150.094096	2500.088142	1.136073	0.069580	2.849295
150.551294	2511.096638	1.141077	0.069491	2.855090
150.984540	2522.110760	1.146082	0.069407	2.860872
151.543382	2533.122154	1.151087	0.069300	2.866661
151.885054	2544.164858	1.156091	0.069233	2.872420
152.378150	2555.175540	1.161096	0.069138	2.878175
152.625054	2566.204556	1.166101	0.069089	2.883888
153.157794	2577.217627	1.171106	0.068986	2.889628
153.393396	2588.260490	1.176110	0.068939	2.895324
154.042627	2599.235515	1.181115	0.068815	2.901039
154.269091	2610.308904	1.186120	0.068769	2.906727
154.619773	2621.281486	1.191125	0.068701	2.912371
154.666645	2632.336938	1.196129	0.068689	2.917999
155.136176	2643.316992	1.201134	0.068598	2.923644
155.584605	2654.350573	1.206139	0.068512	2.929302
155.866629	2665.380839	1.211143	0.068456	2.934921
156.109021	2676.401323	1.216148	0.068408	2.940519
156.600205	2687.403170	1.221153	0.068313	2.946134
157.068711	2698.411731	1.226158	0.068222	2.951739
157.535852	2709.430338	1.231162	0.068132	2.957338
158.016243	2720.455100	1.236167	0.068039	2.962931
158.346965	2731.481714	1.241172	0.067974	2.968491
159.001296	2742.493126	1.246177	0.067849	2.974083
159.380805	2753.507716	1.251181	0.067775	2.979624
159.695197	2764.556696	1.256186	0.067713	2.985162
159.889351	2775.567207	1.261191	0.067674	2.990652
160.255430	2786.573925	1.266195	0.067602	2.996156
160.728904	2797.580216	1.271200	0.067511	3.001666
161.008081	2808.620968	1.276205	0.067456	3.007153
161.312386	2819.631466	1.281210	0.067396	3.012620
161.602720	2830.649351	1.286214	0.067339	3.018077
161.941913	2841.659417	1.291219	0.067272	3.023529
162.244291	2852.691240	1.296224	0.067213	3.028975
162.828023	2863.675302	1.301228	0.067101	3.034430
163.212432	2874.739645	1.306233	0.067026	3.039885
163.541086	2885.738367	1.311238	0.066961	3.045290
163.875839	2896.783446	1.316243	0.066896	3.050708
164.017317	2907.778288	1.321247	0.066866	3.056065
164.167362	2918.802271	1.326252	0.066836	3.061427
164.640869	2929.803335	1.331257	0.066744	3.066816
164.823209	2940.822547	1.336262	0.066707	3.072161
165.024923	2951.876125	1.341266	0.066667	3.077517
165.240039	2962.860747	1.346271	0.066623	3.082832
165.508429	2973.900100	1.351276	0.066570	3.088172
165.878621	2984.882943	1.356280	0.066498	3.093490
166.321151	2995.914513	1.361285	0.066412	3.098833
166.721197	3006.929821	1.366290	0.066335	3.104152
167.031558	3017.960927	1.371295	0.066274	3.109457
167.128925	3028.990334	1.376299	0.066253	3.114722
167.588094	3039.962273	1.381304	0.066164	3.120001
168.004108	3051.012815	1.386309	0.066083	3.125303
168.436052	3062.028389	1.391314	0.065999	3.130582
168.749705	3073.046407	1.396318	0.065938	3.135836
169.059700	3084.039975	1.401323	0.065877	3.141069
169.367404	3095.074761	1.406328	0.065816	3.146312
169.732635	3106.093418	1.411332	0.065745	3.151547
169.938727	3117.139013	1.416337	0.065704	3.156764
170.313874	3128.110113	1.421342	0.065630	3.161961
170.620864	3139.154374	1.426347	0.065570	3.167173
170.783805	3150.177181	1.431351	0.065537	3.172348
170.852271	3161.200310	1.436356	0.065521	3.177501
171.298668	3172.177720	1.441361	0.065435	3.182676
171.637828	3183.233045	1.446366	0.065368	3.187864
172.195881	3194.211829	1.451370	0.065261	3.193038
172.489524	3205.263944	1.456375	0.065203	3.198201
172.950232	3216.251757	1.461380	0.065114	3.203349
173.565481	3227.288435	1.466384	0.064996	3.208532
173.749073	3238.304659	1.471389	0.064959	3.213639
174.022081	3249.331594	1.476394	0.064905	3.218755
174.199813	3260.335412	1.481399	0.064869	3.223839
174.321340	3271.377860	1.486403	0.064843	3.228925
174.656854	3282.359451	1.491408	0.064777	3.234004
175.240823	3293.380211	1.496413	0.064665	3.239126
175.522196	3304.392392	1.501417	0.064610	3.244195
175.801737	3315.432890	1.506422	0.064554	3.249270
176.107069	3326.432732	1.511427	0.064494	3.254321
176.240443	3337.461808	1.516432	0.064467	3.259355
176.882736	3348.454266	1.521436	0.064343	3.264431
177.216658	3359.498848	1.526441	0.064278	3.269482
177.694203	3370.494001	1.531446	0.064186	3.274522
177.743861	3381.545910	1.536451	0.064174	3.279524
177.983010	3392.541651	1.541455	0.064126	3.284518
178.317016	3403.581935	1.546460	0.064061	3.289536
178.625460	3414.568274	1.551465	0.064000	3.294519
179.036282	3425.593019	1.556469	0.063920	3.299525
179.266210	3436.602376	1.561474	0.063874	3.304493
179.655218	3447.629123	1.566479	0.063799	3.309481
180.181055	3458.631750	1.571484	0.063697	3.314469
180.554250	3469.663516	1.576488	0.063624	3.319443
180.908653	3480.653087	1.581493	0.063555	3.324388
181.175793	3491.713683	1.586498	0.063502	3.329346
181.558673	3502.695579	1.591503	0.063428	3.334276
181.796731	3513.729609	1.596507	0.063380	3.339204
182.333809	3524.725649	1.601512	0.063277	3.344145
182.365617	3535.789925	1.606517	0.063268	3.349046
182.813180	3546.750594	1.611521	0.063181	3.353945
182.992947	3557.808443	1.616526	0.063145	3.358847
183.376563	3568.783891	1.621531	0.063070	3.363731
183.963873	3579.833909	1.626536	0.062957	3.368666
184.383711	3590.823489	1.631540	0.062876	3.373546
184.720018	3601.873584	1.636545	0.062810	3.378435
184.905414	3612.861957	1.641550	0.062772	3.383271
185.158397	3623.914370	1.646555	0.062722	3.388137
185.424268	3634.892036	1.651559	0.062670	3.392964
185.738187	3645.945174	1.656564	0.062608	3.397823
186.124612	3656.900862	1.661569	0.062533	3.402642
186.393095	3667.987379	1.666573	0.062480	3.407497
186.777626	3678.939522	1.671578	0.062405	3.412300
187.313921	3689.996884	1.676583	0.062301	3.417160
187.706690	3700.990104	1.681588	0.062225	3.421968
188.002172	3712.027747	1.686592	0.062167	3.426777
188.254526	3723.044003	1.691597	0.062117	3.431565
188.460400	3734.077958	1.696602	0.062075	3.436348
188.713549	3745.043240	1.701606	0.062025	3.441100
189.002275	3756.097587	1.706611	0.061968	3.445888
189.244378	3767.100501	1.711616	0.061920	3.450642
189.469244	3778.143269	1.716621	0.061875	3.455404
189.839047	3789.105900	1.721625	0.061803	3.460143
190.138995	3800.186519	1.726630	0.061744	3.464917
190.436563	3811.160467	1.731635	0.061686	3.469639
190.769771	3822.174968	1.736640	0.061620	3.474376
191.111919	3833.211152	1.741644	0.061553	3.479116
191.298571	3844.252675	1.746649	0.061516	3.483834
191.738169	3855.221324	1.751654	0.061430	3.488544
192.008209	3866.251102	1.756658	0.061377	3.493254
192.321755	3877.271532	1.761663	0.061315	3.497959
192.485419	3888.298007	1.766668	0.061282	3.502642
192.829334	3899.276667	1.771673	0.061215	3.507320
193.076795	3910.336710	1.776677	0.061166	3.512014
193.437716	3921.311782	1.781682	0.061095	3.516680
193.778058	3932.357138	1.786687	0.061029	3.521366
194.328651	3943.355663	1.791692	0.060923	3.526051
194.648072	3954.395900	1.796696	0.060860	3.530720
194.845544	3965.394073	1.801701	0.060820	3.535351
194.977128	3976.439716	1.806706	0.060793	3.539989
195.269421	3987.411423	1.811710	0.060735	3.544608
195.867677	3998.441092	1.816715	0.060620	3.549280
196.175975	4009.459606	1.821720	0.060560	3.553908
196.513628	4020.474306	1.826725	0.060493	3.558532
196.890695	4031.487713	1.831729	0.060420	3.563153
197.364767	4042.513603	1.836734	0.060328	3.567785
197.670852	4053.494934	1.841739	0.060268	3.572373
198.068281	4064.542950	1.846744	0.060191	3.576993
198.441953	4075.528181	1.851748	0.060118	3.581578
198.669334	4086.595978	1.856753	0.060073	3.586175
198.813783	4097.605088	1.861758	0.060043	3.590733
199.100360	4108.653047	1.866762	0.059986	3.595317
199.375201	4119.650192	1.871767	0.059932	3.599872
199.619228	4130.692589	1.876772	0.059883	3.604437
199.849683	4141.695761	1.881777	0.059837	3.608979
200.238866	4152.728434	1.886781	0.059762	3.613544
200.445891	4163.737135	1.891786	0.059720	3.618074
200.828924	4174.740309	1.896791	0.059646	3.622615
201.265606	4185.751737	1.901795	0.059561	3.627159
201.450844	4196.780819	1.906800	0.059523	3.631678
201.852986	4207.783689	1.911805	0.059445	3.636203
202.024803	4218.838090	1.916810	0.059410	3.640719
202.297669	4229.834164	1.921814	0.059356	3.645217
202.576345	4240.821738	1.926819	0.059301	3.649706
202.889123	4251.852585	1.931824	0.059240	3.654211
203.108952	4262.871013	1.936829	0.059196	3.658695
203.346416	4273.902354	1.941833	0.059149	3.663181
203.738948	4284.918049	1.946838	0.059072	3.667671
204.048023	4295.899148	1.951843	0.059011	3.672133
204.581923	4306.938497	1.956847	0.058909	3.676637
204.801078	4317.935801	1.961852	0.058865	3.681085
205.115138	4328.980705	1.966857	0.058803	3.685556
205.250099	4339.968861	1.971862	0.058775	3.689981
205.609639	4350.986158	1.976866	0.058705	3.694435
205.863959	4362.009564	1.981871	0.058654	3.698876
206.132707	4373.053597	1.986876	0.058601	3.703321
206.445200	4384.025389	1.991881	0.058540	3.707736
206.659572	4395.080824	1.996885	0.058497	3.712169
206.758453	4406.086541	2.001890	0.058476	3.716564
207.093642	4417.077467	2.006895	0.058410	3.720974
