Wed Nov 23 18:47:16 2022

Number of Points = 2200
Depth (nm)	Load (µN)	Time (s)	Depth (V)	Load (V)
-31.763591	-2.498405	0.000000	0.028712	0.970294
-9.100575	1.676025	0.005005	0.024458	0.989214
0.000000	13.513689	0.010009	0.022748	1.011612
6.210758	25.478861	0.015014	0.021579	1.032173
10.390464	37.316767	0.020019	0.020792	1.051096
14.762313	48.624985	0.025024	0.019969	1.069049
17.887579	60.120149	0.030028	0.019380	1.086332
21.359242	71.244421	0.035033	0.018726	1.103017
23.881366	82.625497	0.040038	0.018250	1.119328
27.012264	93.675119	0.045043	0.017659	1.135264
29.596295	104.903455	0.050047	0.017172	1.150947
32.236458	116.069099	0.055052	0.016674	1.166365
34.633617	127.240492	0.060057	0.016221	1.181476
37.168826	138.339841	0.065061	0.015743	1.196368
39.002349	149.605718	0.070066	0.015396	1.210964
41.688774	160.569825	0.075071	0.014889	1.225398
43.824148	171.765341	0.080076	0.014485	1.239698
46.119350	182.849304	0.085080	0.014052	1.253770
48.114767	194.020490	0.090085	0.013675	1.267659
50.285319	205.090015	0.095090	0.013265	1.281353
52.041652	216.251564	0.100094	0.012933	1.294833
54.143113	227.367211	0.105099	0.012535	1.308263
55.820839	238.458201	0.110104	0.012218	1.321356
58.091496	249.431423	0.115109	0.011789	1.334427
59.781669	260.629779	0.120113	0.011469	1.347386
61.800935	271.651403	0.125118	0.011088	1.360157
63.423389	282.806702	0.130123	0.010780	1.372798
65.344756	293.857116	0.135128	0.010417	1.385326
66.964418	304.972304	0.140132	0.010110	1.397694
68.423999	316.088317	0.145137	0.009834	1.409893
69.414558	327.238850	0.150142	0.009645	1.421847
70.451557	338.318012	0.155146	0.009448	1.433644
71.274924	349.411516	0.160151	0.009291	1.445280
72.208845	360.489971	0.165156	0.009113	1.456848
72.783964	371.595392	0.170161	0.009002	1.468222
73.516034	382.645433	0.175165	0.008862	1.479510
74.052148	393.731360	0.180170	0.008759	1.490677
74.618180	404.807954	0.185175	0.008650	1.501762
75.107361	415.850718	0.190180	0.008555	1.512706
75.837682	426.878955	0.195184	0.008415	1.523641
76.559812	437.932901	0.200189	0.008277	1.534519
76.991895	449.055550	0.205194	0.008193	1.545287
77.373229	460.110451	0.210198	0.008119	1.555898
77.850654	471.154561	0.215203	0.008027	1.566460
78.176033	482.228058	0.220208	0.007963	1.576927
78.567397	493.255284	0.225213	0.007887	1.587305
78.896135	504.329828	0.230217	0.007822	1.597637
79.064328	515.423996	0.235222	0.007788	1.607869
79.293622	526.457569	0.240227	0.007742	1.618000
79.293305	537.538638	0.245232	0.007739	1.628038
79.246220	548.578968	0.250236	0.007746	1.637962
79.342448	559.609942	0.255241	0.007725	1.647864
79.186782	570.706346	0.260246	0.007751	1.657685
79.029423	581.744239	0.265250	0.007778	1.667396
78.828513	592.786863	0.270255	0.007813	1.677042
78.574016	603.858654	0.275260	0.007858	1.686642
78.413691	614.875890	0.280265	0.007885	1.696169
78.188037	625.934076	0.285269	0.007925	1.705658
77.852523	636.988261	0.290274	0.007985	1.715058
77.671166	648.025374	0.295279	0.008017	1.724439
77.295747	659.054183	0.300283	0.008084	1.733704
77.260036	670.082393	0.305288	0.008088	1.743020
76.956043	681.142533	0.310293	0.008143	1.752235
76.581911	692.227742	0.315298	0.008210	1.761401
76.331829	703.207062	0.320302	0.008254	1.770469
76.141202	714.265665	0.325307	0.008287	1.779573
75.908754	725.271049	0.330312	0.008328	1.788576
75.681573	736.350195	0.335317	0.008368	1.797595
75.635311	747.328235	0.340321	0.008374	1.806538
75.423613	758.416735	0.345326	0.008411	1.815481
75.229106	769.416546	0.350331	0.008445	1.824312
75.123175	780.474890	0.355335	0.008462	1.833173
74.838237	791.515824	0.360340	0.008513	1.841928
74.644166	802.561652	0.365345	0.008546	1.850670
74.404106	813.589550	0.370350	0.008589	1.859345
74.372735	824.594492	0.375354	0.008592	1.868018
74.209179	835.646468	0.380359	0.008620	1.876652
73.982915	846.701258	0.385364	0.008659	1.885232
73.905563	857.692435	0.390369	0.008671	1.893764
73.880013	868.747988	0.395373	0.008673	1.902322
73.721518	879.779853	0.400378	0.008700	1.910787
74.098136	890.746479	0.405383	0.008627	1.919307
74.129355	901.823397	0.410387	0.008618	1.927783
74.213426	912.864063	0.415392	0.008600	1.936207
73.978344	923.910636	0.420397	0.008641	1.944516
73.880970	934.943934	0.425402	0.008657	1.952816
74.038126	945.929546	0.430406	0.008624	1.961110
74.350699	956.963749	0.435411	0.008563	1.969446
74.469864	967.998797	0.440416	0.008538	1.977698
74.752486	979.024257	0.445421	0.008482	1.985950
74.888344	990.045381	0.450425	0.008454	1.994128
75.029701	1001.106773	0.455430	0.008425	2.002302
75.039433	1012.172347	0.460435	0.008420	2.010414
75.262801	1023.158640	0.465439	0.008376	2.018488
75.421330	1034.192757	0.470444	0.008343	2.026549
75.646673	1045.233754	0.475449	0.008298	2.034600
75.766904	1056.248975	0.480454	0.008273	2.042574
76.113992	1067.275046	0.485458	0.008205	2.050580
76.397321	1078.323920	0.490463	0.008149	2.058556
76.625495	1089.337469	0.495468	0.008103	2.066463
76.814549	1100.363220	0.500472	0.008065	2.074338
77.428086	1111.370266	0.505477	0.007947	2.082273
77.652470	1122.435931	0.510482	0.007903	2.090125
78.055500	1133.445760	0.515487	0.007824	2.097951
78.308142	1144.468246	0.520491	0.007774	2.105721
78.678418	1155.510746	0.525496	0.007702	2.113504
78.840936	1166.558590	0.530501	0.007669	2.121214
79.207632	1177.560372	0.535506	0.007597	2.128911
79.315449	1188.620045	0.540510	0.007574	2.136560
79.770820	1199.601630	0.545515	0.007486	2.144208
80.124283	1210.635670	0.550520	0.007417	2.151842
80.318097	1221.714348	0.555524	0.007378	2.159442
80.716397	1232.673698	0.560529	0.007300	2.166981
81.077205	1243.749284	0.565534	0.007230	2.174564
81.573496	1254.727810	0.570539	0.007134	2.182086
81.907746	1265.800066	0.575543	0.007069	2.189609
82.215551	1276.812143	0.580548	0.007008	2.197059
82.601388	1287.838430	0.585553	0.006933	2.204510
82.802063	1298.869721	0.590558	0.006893	2.211899
83.216028	1309.889347	0.595562	0.006812	2.219302
83.558057	1320.907558	0.600567	0.006745	2.226664
84.004533	1331.941272	0.605572	0.006659	2.234035
84.212897	1342.969557	0.610576	0.006617	2.241325
84.667948	1354.005352	0.615581	0.006529	2.248651
85.026710	1365.045985	0.620586	0.006459	2.255935
85.184776	1376.062021	0.625591	0.006426	2.263135
85.428891	1387.081504	0.630595	0.006378	2.270334
86.060344	1398.060360	0.635600	0.006257	2.277567
86.320292	1409.151459	0.640605	0.006205	2.284769
86.790964	1420.133441	0.645610	0.006114	2.291924
87.105964	1431.168005	0.650614	0.006052	2.299056
87.688976	1442.180655	0.655619	0.005940	2.306210
88.012415	1453.220519	0.660624	0.005877	2.313303
88.551493	1464.221859	0.665628	0.005773	2.320396
88.861095	1475.281096	0.670633	0.005712	2.327455
89.204030	1486.332115	0.675638	0.005645	2.334495
89.549783	1497.300974	0.680643	0.005577	2.341462
90.021929	1508.331764	0.685647	0.005486	2.348474
90.384696	1519.382717	0.690652	0.005415	2.355454
90.831693	1530.378947	0.695657	0.005329	2.362398
91.070126	1541.439189	0.700661	0.005281	2.369317
91.568188	1552.420144	0.705666	0.005185	2.376220
92.029129	1563.440497	0.710671	0.005096	2.383120
92.559103	1574.495123	0.715676	0.004994	2.390035
92.869523	1585.508280	0.720680	0.004933	2.396860
93.341364	1596.541031	0.725685	0.004841	2.403709
93.646701	1607.556790	0.730690	0.004781	2.410496
94.210811	1618.582972	0.735695	0.004673	2.417321
94.520662	1629.610848	0.740699	0.004612	2.424078
95.107820	1640.599658	0.745704	0.004499	2.430846
95.300008	1651.673836	0.750709	0.004460	2.437570
95.696815	1662.678906	0.755713	0.004383	2.444273
96.081820	1673.693133	0.760718	0.004308	2.450961
96.656083	1684.703309	0.765723	0.004198	2.457665
96.988058	1695.746056	0.770728	0.004133	2.464324
97.394210	1706.773961	0.775732	0.004054	2.470969
97.701446	1717.771765	0.780737	0.003993	2.477560
98.391259	1728.800825	0.785742	0.003861	2.484225
98.977528	1739.810076	0.790747	0.003748	2.490841
99.441471	1750.865623	0.795751	0.003659	2.497443
99.879329	1761.857692	0.800756	0.003574	2.503985
100.515270	1772.870851	0.805761	0.003452	2.510559
100.831434	1783.931680	0.810765	0.003390	2.517084
101.294948	1794.962927	0.815770	0.003300	2.523602
101.609763	1805.960221	0.820775	0.003238	2.530056
102.205123	1816.968326	0.825780	0.003124	2.536552
102.681314	1828.016457	0.830784	0.003031	2.543032
103.014845	1839.029811	0.835789	0.002966	2.549449
103.307462	1850.058791	0.840794	0.002909	2.555851
103.870489	1861.085841	0.845799	0.002800	2.562286
104.154496	1872.116095	0.850803	0.002744	2.568654
104.797602	1883.129980	0.855808	0.002621	2.575064
105.039350	1894.165749	0.860813	0.002573	2.581397
105.585786	1905.149503	0.865817	0.002467	2.587740
105.890907	1916.191556	0.870822	0.002407	2.594056
106.401175	1927.184386	0.875827	0.002309	2.600366
106.869165	1938.217058	0.880832	0.002218	2.606676
107.442225	1949.252913	0.885836	0.002108	2.612991
107.726113	1960.260103	0.890841	0.002052	2.619223
108.092733	1971.294803	0.895846	0.001981	2.625470
108.424615	1982.304451	0.900850	0.001916	2.631682
109.075583	1993.327648	0.905855	0.001791	2.637943
109.463648	2004.342555	0.910860	0.001715	2.644138
109.916386	2015.375901	0.915865	0.001628	2.650340
110.048898	2026.437913	0.920869	0.001600	2.656487
110.423720	2037.411084	0.925874	0.001527	2.662614
110.649947	2048.427717	0.930879	0.001482	2.668724
111.189556	2059.421074	0.935884	0.001378	2.674862
111.575435	2070.446955	0.940888	0.001303	2.680976
112.191418	2081.442780	0.945893	0.001184	2.687100
112.612397	2092.505592	0.950898	0.001103	2.693213
113.096066	2103.493947	0.955902	0.001009	2.699283
113.447090	2114.530008	0.960907	0.000940	2.705341
114.082972	2125.536533	0.965912	0.000818	2.711419
114.414351	2136.590066	0.970917	0.000754	2.717456
114.969974	2147.585817	0.975921	0.000647	2.723487
115.174396	2158.614487	0.980926	0.000605	2.729462
115.529620	2169.653902	0.985931	0.000536	2.735456
115.841121	2180.653048	0.990936	0.000475	2.741407
116.294251	2191.677598	0.995940	0.000387	2.747383
116.584413	2202.695889	1.000945	0.000330	2.753315
117.038526	2213.703958	1.005950	0.000242	2.759257
117.303439	2224.745585	1.010954	0.000190	2.765171
117.862268	2235.748139	1.015959	0.000082	2.771101
118.043150	2246.790920	1.020964	0.000045	2.776977
118.504909	2257.777331	1.025969	-0.000044	2.782857
118.741879	2268.830984	1.030973	-0.000091	2.788723
119.079627	2279.835220	1.035978	-0.000157	2.794567
119.399270	2290.865572	1.040983	-0.000220	2.800410
119.982428	2301.843360	1.045988	-0.000332	2.806255
120.510174	2312.904426	1.050992	-0.000434	2.812123
120.977265	2323.889454	1.055997	-0.000524	2.817929
121.143113	2334.940724	1.061002	-0.000558	2.823709
121.498643	2345.962077	1.066006	-0.000628	2.829492
121.586589	2356.994020	1.071011	-0.000647	2.835225
122.043718	2367.968029	1.076016	-0.000735	2.840976
122.463405	2379.007875	1.081021	-0.000817	2.846743
123.043142	2390.010283	1.086025	-0.000928	2.852505
123.303369	2401.052160	1.091030	-0.000980	2.858225
123.489554	2412.082660	1.096035	-0.001018	2.863915
123.850046	2423.068229	1.101039	-0.001088	2.869599
124.283142	2434.123981	1.106044	-0.001172	2.875318
124.608458	2445.120842	1.111049	-0.001236	2.880979
124.892391	2456.157952	1.116054	-0.001292	2.886643
125.096901	2467.183637	1.121058	-0.001333	2.892278
125.420734	2478.177858	1.126063	-0.001396	2.897904
125.899052	2489.170599	1.131068	-0.001489	2.903542
126.452575	2500.214226	1.136073	-0.001595	2.909207
126.723204	2511.245636	1.141077	-0.001649	2.914811
127.180711	2522.245874	1.146082	-0.001737	2.920416
127.328294	2533.285810	1.151087	-0.001768	2.925984
127.620053	2544.315470	1.156091	-0.001825	2.931558
127.814778	2555.294208	1.161096	-0.001865	2.937080
128.420607	2566.313309	1.166101	-0.001981	2.942675
128.586261	2577.361239	1.171106	-0.002015	2.948207
128.930722	2588.373301	1.176110	-0.002082	2.953738
129.026383	2599.393156	1.181115	-0.002103	2.959225
129.668091	2610.395415	1.186120	-0.002226	2.964774
130.044508	2621.418513	1.191125	-0.002299	2.970284
130.504891	2632.448497	1.196129	-0.002388	2.975799
130.667118	2643.484982	1.201134	-0.002422	2.981263
131.329469	2654.397859	1.206139	-0.002549	2.986730
133.177388	2665.366454	1.211143	-0.002898	2.992390
134.165248	2676.473078	1.216148	-0.003086	2.997980
134.893224	2687.505424	1.221153	-0.003226	3.003484
135.332976	2698.549542	1.226158	-0.003311	3.008941
135.779232	2709.557114	1.231162	-0.003397	3.014371
136.262239	2720.582353	1.236167	-0.003491	3.019806
136.664993	2731.606383	1.241172	-0.003569	3.025218
137.027367	2742.620808	1.246177	-0.003640	3.030610
137.399386	2753.634930	1.251181	-0.003712	3.035994
137.978304	2764.654355	1.256186	-0.003823	3.041400
138.324660	2775.657246	1.261191	-0.003891	3.046755
138.787076	2786.692622	1.266195	-0.003981	3.052133
139.146127	2797.720922	1.271200	-0.004051	3.057483
139.630511	2808.708787	1.276205	-0.004144	3.062823
139.916212	2819.760495	1.281210	-0.004201	3.068155
140.275396	2830.756932	1.286214	-0.004271	3.073461
140.774723	2841.769113	1.291219	-0.004367	3.078786
141.342114	2852.796447	1.296224	-0.004477	3.084119
141.591579	2863.825390	1.301228	-0.004526	3.089398
142.008081	2874.818713	1.306233	-0.004607	3.094674
142.555150	2885.840085	1.311238	-0.004712	3.099973
143.261588	2896.846995	1.316243	-0.004848	3.105278
143.525359	2907.906994	1.321247	-0.004900	3.110538
143.975721	2918.896461	1.326252	-0.004987	3.115781
144.301343	2929.929752	1.331257	-0.005051	3.121018
144.696998	2940.932699	1.336262	-0.005128	3.126242
145.208577	2951.962331	1.341266	-0.005227	3.131486
145.596273	2962.960668	1.346271	-0.005302	3.136689
146.047151	2973.971156	1.351276	-0.005389	3.141898
146.373944	2985.037477	1.356280	-0.005453	3.147107
146.659923	2996.031166	1.361285	-0.005510	3.152268
146.989232	3007.039889	1.366290	-0.005574	3.157433
147.292829	3018.084606	1.371295	-0.005634	3.162603
147.821142	3029.084727	1.376299	-0.005736	3.167775
148.225883	3040.086136	1.381304	-0.005815	3.172921
148.493424	3051.114079	1.386309	-0.005867	3.178053
149.002392	3062.121597	1.391314	-0.005966	3.183200
149.394916	3073.151521	1.396318	-0.006042	3.188333
149.687128	3084.179208	1.401323	-0.006100	3.193443
150.228279	3095.164092	1.406328	-0.006204	3.198558
150.588381	3106.205373	1.411332	-0.006274	3.203667
151.129773	3117.224363	1.416337	-0.006379	3.208782
151.221068	3128.230526	1.421342	-0.006398	3.213822
151.742045	3139.237218	1.426347	-0.006499	3.218912
152.073982	3150.267145	1.431351	-0.006564	3.223979
152.407903	3161.305263	1.436356	-0.006629	3.229043
152.823243	3172.292133	1.441361	-0.006710	3.234085
153.064635	3183.343977	1.446366	-0.006758	3.239127
153.223993	3194.328536	1.451370	-0.006791	3.244119
153.699517	3205.358118	1.456375	-0.006883	3.249165
153.954207	3216.379490	1.461380	-0.006933	3.254171
154.434014	3227.388809	1.466384	-0.007026	3.259193
154.707428	3238.403966	1.471389	-0.007080	3.264183
155.178434	3249.403967	1.476394	-0.007171	3.269184
155.580380	3260.444550	1.481399	-0.007249	3.274186
156.014834	3271.451954	1.486403	-0.007333	3.279170
156.363858	3282.461821	1.491408	-0.007402	3.284136
156.915277	3293.491819	1.496413	-0.007508	3.289130
157.308121	3304.489726	1.501417	-0.007584	3.294082
157.746224	3315.532403	1.506422	-0.007669	3.299051
158.114551	3326.539608	1.511427	-0.007741	3.303989
158.534703	3337.539755	1.516432	-0.007823	3.308922
158.691959	3348.578530	1.521436	-0.007855	3.313832
159.137586	3359.583073	1.526441	-0.007941	3.318756
159.508243	3370.607266	1.531446	-0.008013	3.323671
160.067441	3381.630170	1.536451	-0.008121	3.328602
160.280305	3392.626786	1.541455	-0.008164	3.333472
160.853481	3403.653658	1.546460	-0.008274	3.338391
161.052568	3414.683458	1.551465	-0.008314	3.343259
161.638044	3425.676114	1.556469	-0.008427	3.348151
161.968101	3436.706736	1.561474	-0.008491	3.353021
162.532029	3447.686448	1.566479	-0.008600	3.357890
162.942517	3458.750859	1.571484	-0.008680	3.362770
163.418203	3469.755367	1.576488	-0.008772	3.367624
163.616537	3480.772235	1.581493	-0.008812	3.372443
163.942769	3491.783572	1.586498	-0.008875	3.377269
164.263395	3502.819745	1.591503	-0.008938	3.382097
164.641170	3513.818523	1.596507	-0.009012	3.386910
165.085887	3524.821096	1.601512	-0.009098	3.391725
165.405080	3535.871900	1.606517	-0.009161	3.396538
165.802263	3546.850323	1.611521	-0.009238	3.401324
166.193129	3557.889855	1.616526	-0.009314	3.406127
166.477552	3568.912544	1.621531	-0.009370	3.410904
166.711516	3579.922096	1.626536	-0.009417	3.415663
166.907021	3590.937526	1.631540	-0.009456	3.420413
167.416676	3601.962194	1.636545	-0.009555	3.425197
167.709553	3612.951892	1.641550	-0.009612	3.429934
168.157204	3623.976341	1.646555	-0.009699	3.434698
168.617046	3635.002168	1.651559	-0.009788	3.439457
169.211201	3646.017578	1.656564	-0.009902	3.444220
169.268315	3657.070820	1.661569	-0.009916	3.448930
169.594232	3668.042282	1.666573	-0.009980	3.453630
169.833069	3679.080239	1.671578	-0.010027	3.458342
170.413103	3690.056503	1.676583	-0.010139	3.463061
170.876613	3701.103221	1.681588	-0.010228	3.467789
171.275980	3712.101020	1.686592	-0.010306	3.472483
171.403969	3723.147102	1.691597	-0.010333	3.477160
171.862949	3734.146340	1.696602	-0.010422	3.481848
172.072682	3745.196442	1.701606	-0.010464	3.486523
172.456451	3756.147061	1.706611	-0.010538	3.491170
172.956797	3767.192410	1.711616	-0.010635	3.495864
173.240714	3778.210063	1.716621	-0.010691	3.500515
173.410177	3789.254448	1.721625	-0.010726	3.505157
173.775325	3800.237902	1.726630	-0.010797	3.509791
174.265321	3811.265832	1.731635	-0.010891	3.514451
174.660786	3822.273119	1.736640	-0.010968	3.519085
175.012591	3833.288388	1.741644	-0.011037	3.523711
175.285652	3844.341331	1.746649	-0.011091	3.528339
175.385615	3855.319801	1.751654	-0.011113	3.532909
175.606333	3866.341648	1.756658	-0.011157	3.537505
176.024927	3877.350156	1.761663	-0.011238	3.542112
176.426045	3888.375839	1.766668	-0.011316	3.546718
176.681879	3899.389655	1.771673	-0.011367	3.551297
176.846233	3910.420630	1.776677	-0.011400	3.555866
176.842783	3921.420174	1.781682	-0.011402	3.560399
177.243487	3932.434292	1.786687	-0.011480	3.564976
177.489067	3943.442305	1.791692	-0.011529	3.569527
177.877782	3954.464214	1.796696	-0.011605	3.574095
178.231468	3965.504639	1.801701	-0.011674	3.578660
178.381654	3976.510244	1.806706	-0.011705	3.583182
178.869592	3987.509774	1.811710	-0.011799	3.587733
179.384587	3998.503479	1.816715	-0.011898	3.592279
179.834998	4009.551807	1.821720	-0.011986	3.596835
180.061252	4020.567761	1.826725	-0.012031	3.601347
180.189116	4031.614745	1.831729	-0.012058	3.605855
180.388222	4042.585972	1.836734	-0.012098	3.610334
180.717584	4053.619499	1.841739	-0.012162	3.614847
180.977180	4064.614739	1.846744	-0.012214	3.619332
181.275122	4075.654576	1.851748	-0.012272	3.623833
181.529339	4086.658186	1.856753	-0.012323	3.628309
181.758303	4097.727946	1.861758	-0.012368	3.632803
181.996875	4108.741691	1.866762	-0.012416	3.637271
182.109198	4119.745940	1.871767	-0.012440	3.641715
182.773833	4130.745279	1.876772	-0.012567	3.646211
183.200429	4141.779578	1.881777	-0.012650	3.650689
183.342922	4152.813129	1.886781	-0.012679	3.655132
183.513779	4163.806787	1.891786	-0.012714	3.659557
183.684374	4174.835820	1.896791	-0.012749	3.663990
184.103709	4185.861492	1.901795	-0.012830	3.668443
184.392240	4196.862496	1.906800	-0.012887	3.672866
184.679050	4207.886084	1.911805	-0.012944	3.677293
185.044002	4218.875316	1.916810	-0.013015	3.681709
185.172631	4229.933571	1.921814	-0.013042	3.686123
185.493163	4240.905559	1.926819	-0.013105	3.690517
185.632250	4251.944537	1.931824	-0.013133	3.694913
186.154597	4262.927639	1.936829	-0.013234	3.699322
186.489626	4273.980954	1.941833	-0.013300	3.703734
186.720276	4284.979322	1.946838	-0.013346	3.708107
186.957255	4296.024028	1.951843	-0.013393	3.712495
187.273710	4307.012305	1.956847	-0.013455	3.716863
187.691148	4318.032001	1.961852	-0.013536	3.721249
187.976637	4329.047644	1.966857	-0.013592	3.725615
188.079489	4340.067284	1.971862	-0.013614	3.729958
188.293275	4351.064839	1.976866	-0.013657	3.734299
188.467484	4362.099128	1.981871	-0.013693	3.738645
188.739498	4373.110835	1.986876	-0.013747	3.742987
188.996546	4384.165761	1.991881	-0.013797	3.747340
