Wed Nov 23 17:50:12 2022

Number of Points = 2200
Depth (nm)	Load (µN)	Time (s)	Depth (V)	Load (V)
-0.910644	1.659473	0.000000	-0.019202	1.109546
0.000000	8.212370	0.005005	-0.019374	1.118603
1.011094	17.556704	0.010009	-0.019566	1.131255
2.079081	28.311158	0.015014	-0.019769	1.145597
3.316564	39.287574	0.020019	-0.020004	1.160121
4.147620	50.484479	0.025024	-0.020163	1.174552
4.876026	61.611866	0.030028	-0.020302	1.188676
5.722291	72.704316	0.035033	-0.020464	1.202644
6.422270	83.836678	0.040038	-0.020598	1.216434
7.110112	94.960367	0.045043	-0.020730	1.230054
8.355400	105.907446	0.050047	-0.020966	1.243556
9.663146	117.017424	0.055052	-0.021214	1.257128
10.673242	128.133114	0.060057	-0.021407	1.270436
11.679233	139.256482	0.065061	-0.021598	1.283612
12.721900	150.345131	0.070066	-0.021797	1.296630
13.601159	161.514410	0.075071	-0.021964	1.309541
14.260546	172.604014	0.080076	-0.022091	1.322148
15.188086	183.602628	0.085080	-0.022268	1.334644
16.249445	194.671871	0.090085	-0.022469	1.347152
16.939717	205.811310	0.095090	-0.022602	1.359475
17.740831	216.869453	0.100094	-0.022755	1.371643
18.720559	227.908996	0.105099	-0.022941	1.383753
19.908941	238.937854	0.110104	-0.023167	1.395825
20.646761	250.117537	0.115109	-0.023308	1.407780
21.526064	261.124950	0.120113	-0.023476	1.419508
22.793771	272.129126	0.125118	-0.023717	1.431281
25.698826	282.877064	0.130123	-0.024264	1.443296
27.052208	294.254686	0.135128	-0.024521	1.455281
27.895772	305.404313	0.140132	-0.024682	1.466756
29.146316	316.412116	0.145137	-0.024920	1.478146
30.161680	327.495572	0.150142	-0.025113	1.489440
31.401695	338.532721	0.155146	-0.025348	1.500682
32.157440	349.682695	0.160151	-0.025493	1.511780
32.947379	360.738524	0.165156	-0.025644	1.522718
33.759476	371.777675	0.170161	-0.025799	1.533570
34.539500	382.860825	0.175165	-0.025948	1.544375
35.539105	393.868969	0.180170	-0.026138	1.555109
36.188632	404.954385	0.185175	-0.026263	1.565723
37.171100	416.005905	0.190180	-0.026450	1.576345
38.065058	427.029086	0.195184	-0.026620	1.586840
39.301367	438.047127	0.200189	-0.026855	1.597372
40.129887	449.161041	0.205194	-0.027013	1.607790
41.201417	460.186046	0.210198	-0.027217	1.618138
42.011620	471.252638	0.215203	-0.027372	1.628374
43.207571	482.249207	0.220208	-0.027599	1.638605
44.105399	493.363640	0.225213	-0.027770	1.648783
44.734076	504.419853	0.230217	-0.027891	1.658762
45.458188	515.467731	0.235222	-0.028030	1.668704
46.216450	526.512913	0.240227	-0.028175	1.678594
47.120636	537.517862	0.245232	-0.028347	1.688436
48.339706	548.538260	0.250236	-0.028578	1.698330
48.926034	559.663612	0.255241	-0.028691	1.708064
49.741704	570.674426	0.260246	-0.028847	1.717715
50.644545	581.713252	0.265250	-0.029019	1.727360
51.309927	592.791928	0.270255	-0.029147	1.736915
51.885195	603.826890	0.275260	-0.029257	1.746354
52.780872	614.837592	0.280265	-0.029428	1.755816
53.484425	625.910762	0.285269	-0.029563	1.765222
54.509297	636.900404	0.290274	-0.029758	1.774602
55.274733	647.986367	0.295279	-0.029904	1.783937
56.120093	658.996933	0.300283	-0.030066	1.793184
56.719774	670.099161	0.305288	-0.030181	1.802388
57.368362	681.098673	0.310293	-0.030305	1.811476
58.243805	692.135041	0.315298	-0.030472	1.820611
58.994594	703.160120	0.320302	-0.030616	1.829657
59.966874	714.188673	0.325307	-0.030801	1.838722
60.501276	725.291073	0.330312	-0.030904	1.847679
61.299471	736.286223	0.335317	-0.031057	1.856582
62.033504	747.341081	0.340321	-0.031197	1.865470
62.615132	758.393068	0.345326	-0.031309	1.874272
63.303235	769.412862	0.350331	-0.031441	1.883037
64.095764	780.416142	0.355335	-0.031592	1.891776
64.958191	791.466478	0.360340	-0.031757	1.900530
65.708650	802.524639	0.365345	-0.031900	1.909219
66.050759	813.590898	0.370350	-0.031967	1.917766
66.970538	824.549989	0.375354	-0.032143	1.926347
67.850399	835.597964	0.380359	-0.032310	1.934945
68.388447	846.695631	0.385364	-0.032414	1.943453
68.975099	857.683362	0.390369	-0.032527	1.951855
69.855819	868.710369	0.395373	-0.032695	1.960325
70.319844	879.784984	0.400378	-0.032785	1.968687
71.235291	890.757002	0.405383	-0.032959	1.977052
71.882835	901.818906	0.410387	-0.033084	1.985380
72.912211	912.804128	0.415392	-0.033279	1.993714
73.402806	923.907454	0.420397	-0.033374	2.001963
74.272942	934.907564	0.425402	-0.033540	2.010197
75.003987	945.941583	0.430406	-0.033680	2.018388
75.641248	956.994176	0.435411	-0.033802	2.026536
76.201434	968.040994	0.440416	-0.033910	2.034627
76.878900	979.024676	0.445421	-0.034040	2.042670
77.496541	990.091228	0.450425	-0.034159	2.050725
78.175127	1001.102536	0.455430	-0.034289	2.058724
78.619497	1012.167904	0.460435	-0.034375	2.066674
79.498530	1023.153547	0.465439	-0.034543	2.074641
80.171919	1034.202609	0.470444	-0.034672	2.082573
81.115544	1045.216794	0.475449	-0.034851	2.090514
81.623973	1056.300826	0.480454	-0.034950	2.098371
82.117354	1067.302047	0.485458	-0.035045	2.106137
82.973220	1078.310694	0.490463	-0.035208	2.113964
83.614986	1089.367224	0.495468	-0.035331	2.121745
83.972934	1100.428432	0.500472	-0.035401	2.129435
84.514022	1111.418409	0.505477	-0.035506	2.137090
85.085728	1122.463848	0.510482	-0.035616	2.144763
86.255073	1133.379886	0.515487	-0.035838	2.152458
87.016729	1144.512935	0.520491	-0.035983	2.160178
87.469941	1155.556263	0.525496	-0.036071	2.167740
87.912195	1166.600399	0.530501	-0.036157	2.175273
88.319994	1177.591974	0.535506	-0.036236	2.182738
88.967332	1188.621831	0.540510	-0.036360	2.190256
89.739117	1199.615000	0.545515	-0.036508	2.197751
90.608805	1210.649201	0.550520	-0.036674	2.205270
91.067430	1221.717651	0.555524	-0.036763	2.212695
91.449613	1232.755161	0.560529	-0.036837	2.220056
92.040146	1243.737168	0.565534	-0.036950	2.227404
92.765905	1254.787238	0.570539	-0.037089	2.234800
93.748665	1265.754996	0.575543	-0.037277	2.242175
94.247560	1276.853668	0.580548	-0.037373	2.249505
95.114927	1287.843410	0.585553	-0.037538	2.256820
95.480084	1298.918256	0.590558	-0.037610	2.264058
96.085959	1309.897782	0.595562	-0.037726	2.271263
96.356693	1320.963735	0.600567	-0.037780	2.278428
97.420897	1331.915821	0.605572	-0.037982	2.285668
98.063318	1343.008225	0.610576	-0.038105	2.292884
98.378596	1354.025887	0.615581	-0.038167	2.299960
99.019605	1365.036194	0.620586	-0.038290	2.307079
99.755662	1376.034881	0.625591	-0.038431	2.314188
100.631534	1387.051423	0.630595	-0.038598	2.321316
101.239532	1398.126462	0.635600	-0.038715	2.328402
101.762990	1409.169184	0.640605	-0.038816	2.335429
102.218789	1420.163050	0.645610	-0.038904	2.342390
102.758363	1431.197520	0.650614	-0.039008	2.349373
103.522573	1442.188125	0.655619	-0.039154	2.356353
103.922234	1453.268588	0.660624	-0.039232	2.363294
104.719197	1464.221727	0.665628	-0.039384	2.370217
105.252133	1475.302340	0.670633	-0.039487	2.377145
105.778080	1486.330780	0.675638	-0.039588	2.384018
106.230867	1497.341867	0.680643	-0.039676	2.390846
106.933826	1508.332815	0.685647	-0.039811	2.397693
107.576242	1519.389529	0.690652	-0.039934	2.404548
108.384187	1530.384225	0.695657	-0.040088	2.411378
108.935345	1541.416767	0.700661	-0.040194	2.418161
109.738484	1552.437915	0.705666	-0.040348	2.424967
110.458525	1563.457395	0.710671	-0.040486	2.431737
111.080271	1574.496015	0.715676	-0.040605	2.438480
111.487402	1585.530461	0.720680	-0.040684	2.445159
112.006025	1596.572899	0.725685	-0.040784	2.451847
112.477780	1607.582208	0.730690	-0.040875	2.458488
112.975532	1618.571616	0.735695	-0.040972	2.465104
113.574102	1629.629503	0.740699	-0.041087	2.471762
114.450269	1640.609444	0.745704	-0.041254	2.478409
114.955799	1651.664736	0.750709	-0.041351	2.485011
115.766671	1662.666927	0.755713	-0.041506	2.491623
116.040702	1673.756067	0.760718	-0.041560	2.498166
116.453376	1684.736805	0.765723	-0.041641	2.504655
117.048302	1695.739086	0.770728	-0.041755	2.511173
117.747733	1706.773575	0.775732	-0.041889	2.517713
118.080277	1717.808868	0.780737	-0.041954	2.524168
118.459493	1728.848332	0.785742	-0.042028	2.530617
118.969298	1739.845577	0.790747	-0.042126	2.537050
119.502375	1750.878359	0.795751	-0.042229	2.543490
120.125098	1761.865711	0.800756	-0.042349	2.549905
120.847576	1772.890742	0.805761	-0.042487	2.556344
121.115172	1783.960569	0.810765	-0.042540	2.562708
121.618404	1794.953414	0.815770	-0.042637	2.569056
122.034584	1806.055806	0.820775	-0.042718	2.575434
122.579396	1817.002040	0.825780	-0.042823	2.581731
122.913043	1828.038765	0.830784	-0.042888	2.588026
123.375814	1839.038987	0.835789	-0.042978	2.594308
123.859244	1850.065455	0.840794	-0.043071	2.600593
124.487753	1861.061991	0.845799	-0.043192	2.606872
125.073741	1872.109544	0.850803	-0.043304	2.613156
125.829620	1883.099166	0.855808	-0.043449	2.619423
126.150004	1894.158752	0.860813	-0.043512	2.625637
126.943524	1905.150472	0.865817	-0.043663	2.631882
127.294419	1916.217216	0.870822	-0.043732	2.638076
127.735508	1927.198343	0.875827	-0.043818	2.644223
128.290635	1938.247587	0.880832	-0.043924	2.650413
129.044047	1949.214992	0.885836	-0.044069	2.656579
129.691775	1960.265468	0.890841	-0.044193	2.662757
130.132035	1971.303209	0.895846	-0.044278	2.668878
130.413695	1982.334145	0.900850	-0.044334	2.674953
130.914986	1993.320468	0.905855	-0.044431	2.681028
131.313839	2004.373371	0.910860	-0.044508	2.687108
131.541558	2015.421211	0.915865	-0.044554	2.693142
132.013574	2026.370279	0.920869	-0.044645	2.699150
132.685852	2037.394622	0.925874	-0.044774	2.705220
133.274761	2048.434905	0.930879	-0.044887	2.711271
133.699775	2059.442345	0.935884	-0.044969	2.717262
134.032198	2070.460637	0.940888	-0.045035	2.723230
134.515229	2081.494163	0.945893	-0.045128	2.729219
134.773184	2092.502080	0.950898	-0.045179	2.735143
135.332967	2103.509909	0.955902	-0.045287	2.741105
135.650678	2114.545976	0.960907	-0.045349	2.747028
136.389190	2125.535803	0.965912	-0.045490	2.752983
136.743676	2136.580747	0.970917	-0.045560	2.758891
137.371677	2147.588021	0.975921	-0.045680	2.764812
137.765885	2158.633978	0.980926	-0.045757	2.770701
138.241531	2169.629241	0.985931	-0.045849	2.776565
138.748369	2180.648743	0.990936	-0.045947	2.782434
139.311968	2191.660756	0.995940	-0.046055	2.788296
139.554963	2202.716852	1.000945	-0.046104	2.794116
140.041805	2213.698978	1.005950	-0.046198	2.799926
140.553399	2224.738843	1.010954	-0.046296	2.805757
141.166558	2235.744343	1.015959	-0.046414	2.811574
141.489571	2246.801211	1.020964	-0.046477	2.817359
142.031442	2257.769968	1.025969	-0.046582	2.823121
142.352576	2268.812515	1.030973	-0.046645	2.828875
142.870470	2279.826235	1.035978	-0.046745	2.834633
143.268527	2290.851362	1.040983	-0.046822	2.840366
144.019548	2301.838488	1.045988	-0.046966	2.846124
144.547527	2312.912620	1.050992	-0.047068	2.851880
145.097252	2323.878955	1.055997	-0.047174	2.857572
145.449143	2334.939077	1.061002	-0.047242	2.863269
146.116626	2345.913014	1.066006	-0.047370	2.868961
146.787385	2356.965120	1.071011	-0.047499	2.874681
147.171974	2367.991613	1.076016	-0.047574	2.880332
147.513728	2379.031116	1.081021	-0.047641	2.885972
148.079436	2390.001786	1.086025	-0.047749	2.891600
148.243202	2401.088920	1.091030	-0.047783	2.897215
148.832129	2412.036783	1.096035	-0.047896	2.902813
149.064061	2423.103635	1.101039	-0.047942	2.908406
149.315758	2434.105602	1.106044	-0.047992	2.913959
149.762650	2445.121846	1.111049	-0.048079	2.919537
150.504894	2456.100436	1.116054	-0.048221	2.925131
151.036192	2467.181374	1.121058	-0.048323	2.930733
151.454060	2478.146439	1.126063	-0.048404	2.936250
152.249789	2489.178426	1.131068	-0.048557	2.941846
152.650149	2500.192050	1.136073	-0.048634	2.947363
153.138881	2511.220217	1.141077	-0.048729	2.952890
153.729825	2522.235501	1.146082	-0.048842	2.958415
154.167863	2533.282782	1.151087	-0.048927	2.963923
154.754164	2544.270095	1.156091	-0.049040	2.969413
155.207026	2555.313600	1.161096	-0.049128	2.974901
155.590690	2566.331271	1.166101	-0.049203	2.980355
155.938498	2577.334357	1.171106	-0.049271	2.985787
156.452934	2588.367896	1.176110	-0.049370	2.991248
156.870802	2599.372336	1.181115	-0.049451	2.996671
157.393662	2610.385556	1.186120	-0.049552	3.002104
157.749253	2621.420601	1.191125	-0.049621	3.007513
158.172977	2632.440006	1.196129	-0.049703	3.012914
158.628758	2643.437755	1.201134	-0.049792	3.018300
159.090954	2654.460210	1.206139	-0.049881	3.023689
159.423209	2665.507338	1.211143	-0.049946	3.029061
159.666485	2676.488022	1.216148	-0.049995	3.034379
160.170466	2687.544461	1.221153	-0.050092	3.039762
160.643536	2698.522730	1.226158	-0.050183	3.045092
161.220422	2709.572104	1.231162	-0.050294	3.050463
161.534643	2720.573894	1.236167	-0.050356	3.055763
161.948357	2731.594382	1.241172	-0.050436	3.061077
162.555752	2742.574323	1.246177	-0.050553	3.066390
162.913849	2753.640717	1.251181	-0.050623	3.071700
163.356715	2764.654099	1.256186	-0.050709	3.076987
163.808656	2775.645951	1.261191	-0.050796	3.082256
164.202371	2786.691516	1.266195	-0.050873	3.087533
164.745577	2797.692357	1.271200	-0.050978	3.092801
164.848465	2808.754370	1.276205	-0.051000	3.098027
165.030089	2819.764118	1.281210	-0.051036	3.103231
165.669964	2830.717362	1.286214	-0.051159	3.108463
166.015898	2841.780969	1.291219	-0.051227	3.113697
166.636450	2852.778106	1.296224	-0.051346	3.118929
167.057964	2863.798027	1.301228	-0.051428	3.124135
167.592415	2874.833771	1.306233	-0.051531	3.129355
167.884238	2885.846275	1.311238	-0.051588	3.134523
168.549574	2896.851159	1.316243	-0.051716	3.139729
168.924071	2907.881387	1.321247	-0.051789	3.144899
169.481431	2918.893542	1.326252	-0.051896	3.150076
169.728309	2929.922577	1.331257	-0.051945	3.155211
169.976980	2940.951724	1.336262	-0.051995	3.160338
170.302340	2951.944151	1.341266	-0.052058	3.165449
170.901639	2962.952267	1.346271	-0.052174	3.170597
171.118704	2973.996320	1.351276	-0.052217	3.175701
171.759785	2984.961642	1.356280	-0.052340	3.180817
172.281172	2996.027127	1.361285	-0.052441	3.185955
172.623096	3007.036700	1.366290	-0.052508	3.191035
172.812025	3018.046939	1.371295	-0.052546	3.196087
173.539026	3029.032053	1.376299	-0.052685	3.201191
174.053289	3040.098381	1.381304	-0.052784	3.206295
174.469217	3051.115034	1.386309	-0.052865	3.211355
174.702027	3062.127304	1.391314	-0.052911	3.216382
174.937961	3073.136137	1.396318	-0.052958	3.221399
175.442434	3084.154072	1.401323	-0.053056	3.226448
176.044145	3095.146565	1.406328	-0.053171	3.231489
176.368668	3106.201919	1.411332	-0.053235	3.236516
176.847897	3117.201185	1.416337	-0.053328	3.241529
177.047129	3128.244812	1.421342	-0.053368	3.246518
177.267710	3139.244504	1.426347	-0.053412	3.251482
177.588289	3150.254899	1.431351	-0.053475	3.256456
178.148556	3161.250872	1.436356	-0.053583	3.261447
178.637982	3172.304797	1.441361	-0.053677	3.266447
179.125394	3183.288461	1.446366	-0.053771	3.271407
179.351413	3194.344232	1.451370	-0.053816	3.276359
179.958284	3205.327363	1.456375	-0.053933	3.281319
180.229394	3216.374081	1.461380	-0.053987	3.286258
180.656863	3227.372764	1.466384	-0.054070	3.291187
181.042761	3238.372652	1.471389	-0.054145	3.296104
181.509323	3249.396142	1.476394	-0.054235	3.301035
181.861894	3260.454046	1.481399	-0.054304	3.305958
182.265086	3271.429354	1.486403	-0.054382	3.310844
182.568666	3282.476461	1.491408	-0.054442	3.315743
182.880814	3293.473066	1.496413	-0.054503	3.320612
183.031825	3304.513840	1.501417	-0.054534	3.325474
183.513801	3315.499629	1.506422	-0.054627	3.330346
183.757166	3326.550682	1.511427	-0.054676	3.335209
184.084028	3337.528061	1.516432	-0.054740	3.340044
184.451105	3348.566232	1.521436	-0.054812	3.344902
184.816199	3359.590521	1.526441	-0.054883	3.349748
185.248228	3370.600842	1.531446	-0.054967	3.354588
185.757003	3381.590131	1.536451	-0.055065	3.359422
186.215645	3392.627089	1.541455	-0.055154	3.364263
186.905820	3403.643002	1.546460	-0.055286	3.369115
187.123344	3414.654446	1.551465	-0.055329	3.373902
187.493199	3425.676093	1.556469	-0.055401	3.378705
187.768544	3436.685079	1.561474	-0.055456	3.383484
188.012550	3447.723716	1.566479	-0.055504	3.388265
188.445260	3458.710360	1.571484	-0.055588	3.393039
188.559657	3469.757797	1.576488	-0.055612	3.397795
188.829628	3480.761546	1.581493	-0.055666	3.402544
189.298911	3491.792005	1.586498	-0.055757	3.407321
189.533139	3502.793233	1.591503	-0.055803	3.412051
189.887977	3513.807272	1.596507	-0.055873	3.416794
190.188466	3524.832947	1.601512	-0.055932	3.421529
190.637951	3535.834449	1.606517	-0.056019	3.426265
190.869624	3546.861062	1.611521	-0.056065	3.430979
191.119922	3557.878787	1.616526	-0.056115	3.435686
191.544565	3568.871900	1.621531	-0.056197	3.440395
192.117233	3579.906877	1.626536	-0.056307	3.445133
192.502574	3590.935224	1.631540	-0.056382	3.449840
192.884933	3601.917654	1.636545	-0.056457	3.454520
193.162294	3612.975293	1.641550	-0.056512	3.459214
193.374238	3623.979333	1.646555	-0.056554	3.463871
193.865616	3634.992417	1.651559	-0.056649	3.468558
194.120586	3645.996275	1.656564	-0.056700	3.473207
194.391136	3657.053328	1.661569	-0.056753	3.477874
194.793537	3668.017853	1.666573	-0.056831	3.482511
195.207762	3679.044946	1.671578	-0.056912	3.487170
196.109788	3690.022299	1.676583	-0.057084	3.491856
196.551773	3701.092564	1.681588	-0.057169	3.496523
197.022767	3712.086879	1.686592	-0.057260	3.501155
197.419030	3723.132275	1.691597	-0.057338	3.505794
197.670016	3734.141092	1.696602	-0.057387	3.510395
197.966056	3745.149359	1.701606	-0.057446	3.514994
198.406525	3756.147532	1.706611	-0.057531	3.519600
198.738795	3767.182999	1.711616	-0.057596	3.524203
199.186227	3778.223248	1.716621	-0.057683	3.528814
199.296879	3789.233006	1.721625	-0.057706	3.533370
199.705866	3800.210725	1.726630	-0.057786	3.537939
200.143928	3811.239206	1.731635	-0.057871	3.542526
200.410634	3822.254782	1.736640	-0.057923	3.547084
200.814166	3833.287558	1.741644	-0.058002	3.551657
201.041335	3844.299234	1.746649	-0.058047	3.556196
201.178192	3855.328820	1.751654	-0.058076	3.560727
201.635725	3866.319487	1.756658	-0.058164	3.565272
201.917059	3877.341171	1.761663	-0.058220	3.569804
202.194890	3888.357377	1.766668	-0.058275	3.574327
202.828325	3899.344172	1.771673	-0.058396	3.578872
203.257510	3910.402325	1.776677	-0.058479	3.583417
203.486320	3921.430682	1.781682	-0.058525	3.587923
204.181340	3932.380522	1.786687	-0.058658	3.592441
204.676820	3943.436403	1.791692	-0.058754	3.596975
205.220693	3954.425137	1.796696	-0.058859	3.601481
205.673629	3965.470813	1.801701	-0.058946	3.605995
206.031684	3976.490130	1.806706	-0.059016	3.610482
206.368275	3987.482683	1.811710	-0.059082	3.614951
206.943725	3998.497305	1.816715	-0.059193	3.619448
207.359532	4009.527179	1.821720	-0.059274	3.623929
207.753046	4020.548193	1.826725	-0.059350	3.628398
208.035255	4031.596155	1.831729	-0.059406	3.632861
208.288653	4042.569661	1.836734	-0.059456	3.637285
208.608503	4053.600927	1.841739	-0.059519	3.641734
208.984081	4064.619598	1.846744	-0.059592	3.646178
209.176988	4075.609258	1.851748	-0.059631	3.650586
209.672433	4086.652869	1.856753	-0.059727	3.655042
209.793776	4097.677443	1.861758	-0.059752	3.659445
210.361982	4108.705239	1.866762	-0.059862	3.663891
210.709380	4119.762214	1.871767	-0.059930	3.668320
210.834461	4130.751593	1.876772	-0.059956	3.672694
211.146525	4141.792096	1.881777	-0.060017	3.677103
211.603858	4152.756977	1.886781	-0.060106	3.681491
212.028864	4163.809334	1.891786	-0.060188	3.685904
212.405307	4174.803308	1.896791	-0.060261	3.690285
212.740545	4185.835636	1.901795	-0.060327	3.694671
213.186461	4196.803495	1.906800	-0.060413	3.699038
213.639825	4207.879624	1.911805	-0.060501	3.703443
214.061627	4218.878165	1.916810	-0.060583	3.707808
214.342112	4229.893167	1.921814	-0.060638	3.712161
214.712638	4240.898880	1.926819	-0.060711	3.716514
215.044782	4251.911774	1.931824	-0.060776	3.720861
215.443685	4262.946183	1.936829	-0.060853	3.725218
215.642838	4273.950953	1.941833	-0.060893	3.729538
215.989222	4284.969209	1.946838	-0.060961	3.733872
216.210087	4295.990348	1.951843	-0.061005	3.738191
216.612630	4307.004277	1.956847	-0.061084	3.742519
216.878165	4318.040727	1.961852	-0.061136	3.746838
217.032830	4329.010775	1.966857	-0.061168	3.751115
