Wed Nov 23 18:09:14 2022

Number of Points = 2200
Depth (nm)	Load (µN)	Time (s)	Depth (V)	Load (V)
0.000000	2.358477	0.000000	0.000148	1.059066
1.585035	8.154071	0.005005	-0.000150	1.067878
3.861934	17.164940	0.010009	-0.000580	1.081341
5.660397	27.911505	0.015014	-0.000920	1.096726
7.224652	39.003830	0.020019	-0.001216	1.112240
8.324254	50.245049	0.025024	-0.001425	1.127511
9.321335	61.409820	0.030028	-0.001615	1.142430
10.063856	72.577878	0.035033	-0.001757	1.157041
10.707324	83.723505	0.040038	-0.001881	1.171395
11.381805	94.839018	0.045043	-0.002010	1.185553
11.956961	105.966189	0.050047	-0.002121	1.199512
12.862119	117.014921	0.055052	-0.002293	1.213362
13.328849	128.214774	0.060057	-0.002384	1.227044
13.832817	139.293073	0.065061	-0.002481	1.240446
21.951938	148.740053	0.070066	-0.004007	1.255053
24.120616	160.981605	0.075071	-0.004417	1.270204
25.498569	172.339171	0.080076	-0.004678	1.283836
26.436382	183.580545	0.085080	-0.004857	1.297011
27.435266	194.713814	0.090085	-0.005047	1.309956
28.617850	205.704512	0.095090	-0.005272	1.322690
29.507481	216.844659	0.100094	-0.005441	1.335349
30.299924	227.950759	0.105099	-0.005593	1.347813
31.483506	238.945384	0.110104	-0.005818	1.360195
32.242319	250.075444	0.115109	-0.005963	1.372445
33.224465	261.185880	0.120113	-0.006150	1.384651
33.886156	272.261437	0.125118	-0.006277	1.396591
34.662136	283.316320	0.130123	-0.006425	1.408451
35.535772	294.387334	0.135128	-0.006592	1.420264
36.193753	305.481675	0.140132	-0.006718	1.431924
36.753141	316.572423	0.145137	-0.006826	1.443450
37.417459	327.626715	0.150142	-0.006953	1.454885
38.146527	338.662006	0.155146	-0.007093	1.466235
38.920696	349.714418	0.160151	-0.007241	1.477530
39.452909	360.818076	0.165156	-0.007343	1.488704
40.342448	371.808937	0.170161	-0.007513	1.499810
40.885773	382.954110	0.175165	-0.007618	1.510862
41.591886	393.980968	0.180170	-0.007753	1.521777
41.965581	405.082125	0.185175	-0.007826	1.532570
42.460776	416.127075	0.190180	-0.007921	1.543275
43.283055	427.107178	0.195184	-0.008078	1.553956
43.913722	438.229428	0.200189	-0.008199	1.564633
44.505823	449.249103	0.205194	-0.008313	1.575128
45.325709	460.286289	0.210198	-0.008470	1.585645
45.967660	471.346360	0.215203	-0.008593	1.596055
46.723435	482.419399	0.220208	-0.008738	1.606446
47.264889	493.496802	0.225213	-0.008842	1.616705
47.799502	504.540495	0.230217	-0.008945	1.626866
49.293465	515.378341	0.235222	-0.009228	1.637085
50.174673	526.591663	0.240227	-0.009396	1.647380
50.932796	537.627076	0.245232	-0.009541	1.657415
54.723145	548.062483	0.250236	-0.010255	1.667808
56.631406	559.590897	0.255241	-0.010616	1.678506
57.493022	570.763126	0.260246	-0.010780	1.688504
58.395772	581.782463	0.265250	-0.010952	1.698324
59.790906	592.757906	0.270255	-0.011217	1.708198
61.490436	603.741178	0.275260	-0.011538	1.718114
62.725789	614.893342	0.280265	-0.011773	1.727976
63.366198	626.028362	0.285269	-0.011896	1.737590
63.829116	637.089421	0.290274	-0.011986	1.747035
64.845852	648.019488	0.295279	-0.012179	1.756484
65.844905	659.081374	0.300283	-0.012369	1.765986
67.131483	670.082559	0.305288	-0.012613	1.775469
68.096125	681.181448	0.310293	-0.012797	1.784889
69.068350	692.188608	0.315298	-0.012982	1.794187
70.034970	703.265909	0.320302	-0.013166	1.803491
70.832838	714.326874	0.325307	-0.013319	1.812686
71.673938	725.339272	0.330312	-0.013479	1.821807
72.409155	736.412832	0.335317	-0.013620	1.830902
73.225595	747.441567	0.340321	-0.013776	1.839939
73.770370	758.494808	0.345326	-0.013881	1.848875
74.844557	769.495570	0.350331	-0.014085	1.857872
75.286156	780.587571	0.355335	-0.014171	1.866724
76.689966	791.482606	0.360340	-0.014437	1.875642
77.524631	802.638958	0.365345	-0.014596	1.884566
78.158928	813.671832	0.370350	-0.014718	1.893298
78.771482	824.702067	0.375354	-0.014836	1.901982
79.824650	835.703494	0.380359	-0.015036	1.910722
80.783050	846.730853	0.385364	-0.015219	1.919416
81.584043	857.807230	0.390369	-0.015372	1.928066
82.202666	868.872705	0.395373	-0.015491	1.936621
83.002003	879.849875	0.400378	-0.015643	1.945119
83.702198	890.906299	0.405383	-0.015777	1.953613
84.211928	901.984782	0.410387	-0.015876	1.962038
84.987683	912.943504	0.415392	-0.016024	1.970405
86.068746	923.960189	0.420397	-0.016230	1.978858
86.794081	935.045612	0.425402	-0.016368	1.987234
87.640988	946.066033	0.430406	-0.016530	1.995558
88.349712	957.096414	0.435411	-0.016666	2.003820
89.184287	968.138008	0.440416	-0.016825	2.012087
89.874124	979.173807	0.445421	-0.016957	2.020280
90.845455	990.163702	0.450425	-0.017142	2.028475
91.367345	1001.251569	0.455430	-0.017243	2.036597
92.292011	1012.226223	0.460435	-0.017419	2.044705
93.072540	1023.305708	0.465439	-0.017568	2.052819
93.936863	1034.318259	0.470444	-0.017733	2.060874
94.572821	1045.373006	0.475449	-0.017855	2.068872
95.051618	1056.442939	0.480454	-0.017948	2.076812
95.815464	1067.418899	0.485458	-0.018094	2.084724
96.199332	1078.503633	0.490463	-0.018169	2.092591
96.781296	1089.498202	0.495468	-0.018281	2.100412
97.656525	1100.500163	0.500472	-0.018448	2.108279
98.368283	1111.536453	0.505477	-0.018584	2.116101
98.944712	1122.602312	0.510482	-0.018695	2.123883
99.410863	1133.627369	0.515487	-0.018785	2.131582
100.050410	1144.636835	0.520491	-0.018908	2.139284
100.929259	1155.624099	0.525496	-0.019075	2.146997
101.418037	1166.745376	0.530501	-0.019170	2.154684
101.791896	1177.742015	0.535506	-0.019243	2.162232
102.452738	1188.763497	0.540510	-0.019369	2.169837
102.875424	1199.815983	0.545515	-0.019452	2.177381
103.509630	1210.829407	0.550520	-0.019573	2.184921
104.013071	1221.812569	0.555524	-0.019670	2.192385
104.683507	1232.878355	0.560529	-0.019799	2.199916
105.251106	1243.888025	0.565534	-0.019908	2.207361
106.073914	1254.917269	0.570539	-0.020065	2.214850
106.596402	1265.936566	0.575543	-0.020166	2.222240
107.249273	1276.971052	0.580548	-0.020291	2.229645
107.967908	1287.971929	0.585553	-0.020429	2.237017
108.479831	1299.067935	0.590558	-0.020528	2.244382
108.735307	1310.082719	0.595562	-0.020578	2.251614
109.477573	1321.079228	0.600567	-0.020720	2.258916
109.806088	1332.139137	0.605572	-0.020785	2.266146
110.675604	1343.101624	0.610576	-0.020951	2.273406
111.091565	1354.152879	0.615581	-0.021031	2.280603
111.894936	1365.170487	0.620586	-0.021185	2.287838
112.430524	1376.231376	0.625591	-0.021288	2.295021
113.110160	1387.215291	0.630595	-0.021418	2.302163
113.605585	1398.253884	0.635600	-0.021514	2.309278
114.146981	1409.316255	0.640605	-0.021618	2.316396
114.331336	1420.344899	0.645610	-0.021656	2.323396
114.876495	1431.353690	0.650614	-0.021761	2.330437
115.445771	1442.348295	0.655619	-0.021870	2.337453
116.283642	1453.350089	0.660624	-0.022030	2.344509
117.190382	1464.370337	0.665628	-0.022203	2.351568
117.593956	1475.459821	0.670633	-0.022282	2.358545
117.964622	1486.487749	0.675638	-0.022354	2.365457
118.562166	1497.475632	0.680643	-0.022469	2.372371
118.962510	1508.521741	0.685647	-0.022547	2.379259
119.340500	1519.554440	0.690652	-0.022620	2.386115
119.968732	1530.514341	0.695657	-0.022741	2.392957
120.868864	1541.557587	0.700661	-0.022912	2.399885
121.387262	1552.612604	0.705666	-0.023012	2.406723
121.890845	1563.645801	0.710671	-0.023110	2.413526
122.240015	1574.660676	0.715676	-0.023178	2.420267
122.599288	1585.682785	0.720680	-0.023248	2.426996
123.305488	1596.690879	0.725685	-0.023383	2.433766
123.837544	1607.709371	0.730690	-0.023486	2.440490
124.374386	1618.744961	0.735695	-0.023589	2.447205
125.145133	1629.756172	0.740699	-0.023737	2.453934
125.430472	1640.796397	0.745704	-0.023793	2.460566
126.231906	1651.780310	0.750709	-0.023946	2.467247
126.575047	1662.872003	0.755713	-0.024013	2.473885
127.001181	1673.847942	0.760718	-0.024096	2.480453
127.492694	1684.886170	0.765723	-0.024191	2.487053
128.124990	1695.918782	0.770728	-0.024312	2.493659
128.404679	1706.936114	0.775732	-0.024367	2.500170
128.991069	1717.945077	0.780737	-0.024480	2.506718
129.350077	1729.000843	0.785742	-0.024550	2.513234
129.791784	1739.986208	0.790747	-0.024636	2.519706
130.140191	1751.037658	0.795751	-0.024704	2.526183
130.644978	1762.044447	0.800756	-0.024801	2.532647
130.997825	1773.070402	0.805761	-0.024870	2.539077
131.336030	1784.100217	0.810765	-0.024937	2.545490
131.951498	1795.089595	0.815770	-0.025055	2.551914
132.565273	1806.120632	0.820775	-0.025173	2.558346
133.292602	1817.113646	0.825780	-0.025312	2.564761
133.925304	1828.183464	0.830784	-0.025433	2.571186
134.118523	1839.281782	0.835789	-0.025472	2.577531
134.412268	1850.226624	0.840794	-0.025530	2.583791
134.721734	1861.235921	0.845799	-0.025591	2.590076
135.011277	1872.282097	0.850803	-0.025648	2.596362
135.511159	1883.273097	0.855808	-0.025744	2.602640
136.100348	1894.278888	0.860813	-0.025858	2.608927
136.611885	1905.312584	0.865817	-0.025956	2.615200
136.910805	1916.374268	0.870822	-0.026015	2.621436
137.260998	1927.352444	0.875827	-0.026084	2.627620
137.983762	1938.357861	0.880832	-0.026222	2.633870
138.367463	1949.406867	0.885836	-0.026297	2.640069
139.005025	1960.418510	0.890841	-0.026419	2.646278
139.522192	1971.441387	0.895846	-0.026519	2.652457
140.009214	1982.474710	0.900850	-0.026613	2.658622
140.337700	1993.481704	0.905855	-0.026677	2.664730
140.931109	2004.500476	0.910860	-0.026791	2.670877
141.091916	2015.544822	0.915865	-0.026824	2.676949
141.756721	2026.538508	0.920869	-0.026952	2.683066
142.002583	2037.589088	0.925874	-0.027001	2.689128
142.474401	2048.579733	0.930879	-0.027092	2.695183
142.779927	2059.589989	0.935884	-0.027152	2.701206
143.439664	2070.572422	0.940888	-0.027279	2.707260
143.958240	2081.631147	0.945893	-0.027379	2.713319
144.284153	2092.667409	0.950898	-0.027442	2.719319
144.813643	2103.630704	0.955902	-0.027545	2.725300
145.406738	2114.680371	0.960907	-0.027659	2.731326
145.947631	2125.700914	0.965912	-0.027763	2.737314
146.463281	2136.720828	0.970917	-0.027862	2.743283
146.694305	2147.756047	0.975921	-0.027908	2.749201
147.141923	2158.773976	0.980926	-0.027995	2.755132
147.604765	2169.769620	0.985931	-0.028085	2.761042
147.974590	2180.813752	0.990936	-0.028157	2.766949
148.519533	2191.847980	0.995940	-0.028262	2.772866
148.790448	2202.835404	1.000945	-0.028315	2.778702
149.186005	2213.854359	1.005950	-0.028392	2.784562
149.659427	2224.890042	1.010954	-0.028484	2.790431
149.946603	2235.897691	1.015959	-0.028540	2.796242
150.416538	2246.946540	1.020964	-0.028631	2.802093
151.031676	2257.919435	1.025969	-0.028749	2.807915
151.575748	2268.963735	1.030973	-0.028854	2.813751
151.801480	2279.990708	1.035978	-0.028899	2.819514
152.256699	2291.010452	1.040983	-0.028988	2.825298
152.559413	2302.024392	1.045988	-0.029047	2.831044
152.998759	2313.045478	1.050992	-0.029132	2.836802
153.423840	2324.051431	1.055997	-0.029215	2.842539
153.869004	2335.086703	1.061002	-0.029301	2.848283
153.970014	2346.103476	1.066006	-0.029323	2.853951
154.283505	2357.136645	1.071011	-0.029384	2.859650
154.519203	2368.136635	1.076016	-0.029431	2.865308
155.260073	2379.122835	1.081021	-0.029573	2.871026
155.641471	2390.193733	1.086025	-0.029647	2.876721
155.938373	2401.208363	1.091030	-0.029706	2.882362
156.100007	2412.217357	1.096035	-0.029739	2.887968
156.567885	2423.248631	1.101039	-0.029829	2.893622
157.042170	2434.221481	1.106044	-0.029921	2.899236
157.703156	2445.262008	1.111049	-0.030048	2.904902
157.913560	2456.291031	1.116054	-0.030090	2.910482
158.468539	2467.304787	1.121058	-0.030197	2.916097
158.656161	2478.330180	1.126063	-0.030235	2.921650
159.145498	2489.332982	1.131068	-0.030329	2.927227
159.614184	2500.352981	1.136073	-0.030420	2.932799
160.020847	2511.367548	1.141077	-0.030499	2.938348
160.565952	2522.377070	1.146082	-0.030604	2.943905
160.847936	2533.448204	1.151087	-0.030660	2.949442
161.166073	2544.417856	1.156091	-0.030722	2.954924
161.671188	2555.461576	1.161096	-0.030820	2.960460
161.906456	2566.472709	1.166101	-0.030866	2.965929
162.402614	2577.508031	1.171106	-0.030962	2.971439
162.416927	2588.531993	1.176110	-0.030968	2.976862
162.830286	2599.515509	1.181115	-0.031048	2.982314
163.409344	2610.505359	1.186120	-0.031159	2.987783
164.006803	2621.557750	1.191125	-0.031274	2.993276
164.473781	2632.582034	1.196129	-0.031365	2.998725
164.861965	2643.612744	1.201134	-0.031440	3.004156
165.061778	2654.619550	1.206139	-0.031480	3.009538
165.278334	2665.655423	1.211143	-0.031524	3.014927
165.627891	2676.652715	1.216148	-0.031592	3.020307
166.061808	2687.650555	1.221153	-0.031676	3.025690
166.579829	2698.706074	1.226158	-0.031776	3.031103
167.284861	2709.653421	1.231162	-0.031911	3.036481
167.783921	2720.715592	1.236167	-0.032007	3.041875
168.215239	2731.742690	1.241172	-0.032091	3.047232
168.889351	2742.745984	1.246177	-0.032220	3.052604
169.446072	2753.769102	1.251181	-0.032328	3.057958
169.476359	2764.803933	1.256186	-0.032336	3.063234
169.787072	2775.824277	1.261191	-0.032397	3.068534
169.849775	2786.851017	1.266195	-0.032411	3.073792
170.382203	2797.833636	1.271200	-0.032514	3.079087
170.745636	2808.875944	1.276205	-0.032585	3.084377
171.315438	2819.865949	1.281210	-0.032695	3.089662
171.696012	2830.891710	1.286214	-0.032769	3.094928
171.925821	2841.941494	1.291219	-0.032815	3.100175
172.002310	2852.942783	1.296224	-0.032832	3.105370
172.654715	2863.946155	1.301228	-0.032957	3.110636
172.973797	2874.977269	1.306233	-0.033019	3.115860
173.721517	2885.953716	1.311238	-0.033162	3.121109
173.909992	2897.022445	1.316243	-0.033201	3.126316
174.537934	2908.005456	1.321247	-0.033321	3.131534
174.957385	2919.031808	1.326252	-0.033403	3.136734
175.556285	2930.036366	1.331257	-0.033518	3.141940
175.953249	2941.072596	1.336262	-0.033595	3.147125
176.217908	2952.112311	1.341266	-0.033647	3.152285
176.510383	2963.103597	1.346271	-0.033705	3.157417
177.044813	2974.125481	1.351276	-0.033808	3.162588
177.350138	2985.140814	1.356280	-0.033868	3.167717
177.904813	2996.158551	1.361285	-0.033975	3.172872
178.109178	3007.192966	1.366290	-0.034016	3.177979
178.468490	3018.185987	1.371295	-0.034086	3.183079
178.830412	3029.229623	1.376299	-0.034157	3.188195
179.556247	3040.192520	1.381304	-0.034296	3.193314
180.101246	3051.243989	1.386309	-0.034401	3.198441
180.730880	3062.244755	1.391314	-0.034521	3.203547
181.471105	3073.256384	1.396318	-0.034663	3.208665
181.893269	3084.295302	1.401323	-0.034745	3.213745
182.296783	3095.312824	1.406328	-0.034823	3.218805
182.955791	3106.306022	1.411332	-0.034950	3.223879
183.320603	3117.357231	1.416337	-0.035021	3.228933
183.723085	3128.358633	1.421342	-0.035099	3.233961
184.049836	3139.390373	1.426347	-0.035163	3.238986
184.578407	3150.380161	1.431351	-0.035265	3.244009
184.992281	3161.426720	1.436356	-0.035346	3.249036
185.354289	3172.425753	1.441361	-0.035416	3.254026
185.789821	3183.450899	1.446366	-0.035501	3.259030
186.323569	3194.447873	1.451370	-0.035604	3.264026
186.533796	3205.512903	1.456375	-0.035646	3.269004
186.790729	3216.486542	1.461380	-0.035697	3.273939
187.219257	3227.530269	1.466384	-0.035780	3.278919
187.613076	3238.526057	1.471389	-0.035856	3.283866
187.991858	3249.550135	1.476394	-0.035930	3.288817
188.411031	3260.570558	1.481399	-0.036012	3.293763
188.749639	3271.590713	1.486403	-0.036078	3.298691
189.257873	3282.566788	1.491408	-0.036176	3.303614
189.581024	3293.627123	1.496413	-0.036239	3.308543
190.099688	3304.619105	1.501417	-0.036339	3.313459
190.328609	3315.682358	1.506422	-0.036385	3.318364
190.843749	3326.644998	1.511427	-0.036484	3.323252
191.392671	3337.678024	1.516432	-0.036590	3.328168
191.769876	3348.685255	1.521436	-0.036664	3.333043
192.168808	3359.727095	1.526441	-0.036741	3.337930
192.520849	3370.713736	1.531446	-0.036810	3.342779
192.900049	3381.765538	1.536451	-0.036884	3.347654
193.383940	3392.748501	1.541455	-0.036977	3.352503
193.746166	3403.788488	1.546460	-0.037048	3.357356
194.360531	3414.776180	1.551465	-0.037166	3.362209
194.891907	3425.818015	1.556469	-0.037269	3.367069
195.212243	3436.825210	1.561474	-0.037331	3.371881
195.701607	3447.846595	1.566479	-0.037426	3.376713
196.186804	3458.844945	1.571484	-0.037520	3.381527
196.419031	3469.894636	1.576488	-0.037566	3.386325
196.714898	3480.896097	1.581493	-0.037624	3.391104
196.903334	3491.925167	1.586498	-0.037662	3.395875
197.435774	3502.918474	1.591503	-0.037765	3.400665
197.763130	3513.965194	1.596507	-0.037829	3.405447
198.027913	3524.959883	1.601512	-0.037882	3.410192
198.376584	3535.997937	1.606517	-0.037950	3.414959
198.808496	3546.989207	1.611521	-0.038033	3.419709
199.336418	3557.998118	1.616526	-0.038135	3.424472
199.629804	3569.037934	1.621531	-0.038193	3.429213
199.957853	3580.041164	1.626536	-0.038257	3.433936
200.624753	3591.062546	1.631540	-0.038385	3.438700
200.965599	3602.061758	1.636545	-0.038452	3.443409
201.496079	3613.102204	1.641550	-0.038554	3.448152
201.800346	3624.111423	1.646555	-0.038614	3.452848
202.306077	3635.112287	1.651559	-0.038712	3.457558
202.693992	3646.129922	1.656564	-0.038787	3.462255
203.028435	3657.173859	1.661569	-0.038853	3.466950
203.046449	3668.181095	1.666573	-0.038859	3.471587
203.482022	3679.194942	1.671578	-0.038943	3.476268
203.778080	3690.179640	1.676583	-0.039001	3.480915
204.190193	3701.231010	1.681588	-0.039081	3.485597
204.426619	3712.241162	1.686592	-0.039129	3.490235
204.919719	3723.249207	1.691597	-0.039224	3.494895
205.046731	3734.282403	1.696602	-0.039250	3.499518
205.514645	3745.295935	1.701606	-0.039341	3.504165
205.978855	3756.300034	1.706611	-0.039431	3.508801
206.371937	3767.322673	1.711616	-0.039507	3.513431
206.640054	3778.342241	1.716621	-0.039560	3.518040
207.182558	3789.333006	1.721625	-0.039665	3.522661
207.424145	3800.372690	1.726630	-0.039713	3.527262
207.843872	3811.387134	1.731635	-0.039794	3.531867
208.111511	3822.404524	1.736640	-0.039847	3.536450
208.339101	3833.402607	1.741644	-0.039893	3.541015
208.553585	3844.461826	1.746649	-0.039936	3.545598
209.033154	3855.410270	1.751654	-0.040028	3.550158
209.457102	3866.467224	1.756658	-0.040111	3.554751
209.745372	3877.472624	1.761663	-0.040167	3.559301
210.210012	3888.485395	1.766668	-0.040257	3.563868
210.694580	3899.516529	1.771673	-0.040351	3.568439
210.918699	3910.535035	1.776677	-0.040396	3.572971
211.162480	3921.536470	1.781682	-0.040444	3.577491
211.401320	3932.539581	1.786687	-0.040492	3.582006
211.893994	3943.574870	1.791692	-0.040587	3.586556
212.232187	3954.584464	1.796696	-0.040653	3.591073
212.489750	3965.613576	1.801701	-0.040704	3.595584
212.780362	3976.587942	1.806706	-0.040761	3.600070
213.029499	3987.658955	1.811710	-0.040811	3.604585
213.564771	3998.624082	1.816715	-0.040914	3.609082
214.014066	4009.660951	1.821720	-0.041001	3.613593
214.412240	4020.706235	1.826725	-0.041079	3.618097
214.570365	4031.684384	1.831729	-0.041111	3.622542
214.851329	4042.720432	1.836734	-0.041166	3.627018
215.008231	4053.719300	1.841739	-0.041199	3.631460
215.362368	4064.742680	1.846744	-0.041268	3.635928
215.617819	4075.756926	1.851748	-0.041318	3.640376
216.012187	4086.780231	1.856753	-0.041395	3.644836
216.001043	4097.838268	1.861758	-0.041396	3.649263
216.036794	4108.869276	1.866762	-0.041405	3.653678
216.590094	4119.845040	1.871767	-0.041512	3.658120
216.917106	4130.895552	1.876772	-0.041576	3.662562
217.433126	4141.901635	1.881777	-0.041675	3.667002
217.569367	4152.914929	1.886781	-0.041704	3.671399
217.840198	4163.926798	1.891786	-0.041757	3.675804
218.320590	4174.931231	1.896791	-0.041850	3.680222
218.855342	4185.955620	1.901795	-0.041953	3.684649
219.165318	4196.982109	1.906800	-0.042014	3.689048
219.335852	4208.003836	1.911805	-0.042049	3.693425
219.468368	4219.013096	1.916810	-0.042076	3.697789
219.662926	4230.032821	1.921814	-0.042116	3.702157
219.971661	4241.034529	1.926819	-0.042176	3.706525
220.481621	4252.032253	1.931824	-0.042275	3.710907
220.659918	4263.100681	1.936829	-0.042311	3.715277
220.919997	4274.074458	1.941833	-0.042362	3.719614
221.194633	4285.109269	1.946838	-0.042417	3.723971
221.698072	4296.083860	1.951843	-0.042514	3.728322
222.247194	4307.132573	1.956847	-0.042620	3.732701
222.932367	4318.136546	1.961852	-0.042751	3.737072
223.335314	4329.140169	1.966857	-0.042829	3.741409
