Wed Nov 23 17:50:12 2022

Number of Points = 2200
Depth (nm)	Load (µN)	Time (s)	Depth (V)	Load (V)
-1.287918	0.944890	0.000000	-0.001277	1.060971
0.000000	7.772708	0.005005	-0.001521	1.071031
1.351277	17.127706	0.010009	-0.001776	1.084456
2.676519	27.860998	0.015014	-0.002028	1.099545
3.930808	38.902290	0.020019	-0.002266	1.114799
4.922794	50.091094	0.025024	-0.002455	1.129913
5.836963	61.224280	0.030028	-0.002629	1.144719
6.692228	72.374555	0.035033	-0.002792	1.159329
7.469559	83.493970	0.040038	-0.002941	1.173683
8.380592	94.599976	0.045043	-0.003115	1.187906
8.935226	105.776139	0.050047	-0.003221	1.201887
9.676112	116.849245	0.055052	-0.003363	1.215664
10.216730	127.986021	0.060057	-0.003467	1.229275
10.833606	139.083067	0.065061	-0.003586	1.242723
11.495596	150.158686	0.070066	-0.003713	1.256020
12.074630	161.275094	0.075071	-0.003824	1.269190
12.570224	172.379807	0.080076	-0.003920	1.282176
22.130182	181.165262	0.085080	-0.005716	1.296147
28.774653	193.583035	0.090085	-0.006966	1.312838
29.691329	205.411701	0.095090	-0.007141	1.326361
30.809997	216.600467	0.100094	-0.007354	1.339126
31.865662	227.689710	0.105099	-0.007554	1.351638
32.574567	238.849198	0.110104	-0.007690	1.363974
33.600074	249.885422	0.115109	-0.007885	1.376190
34.455371	260.964655	0.120113	-0.008049	1.388278
35.657001	271.984491	0.125118	-0.008277	1.400331
36.932456	283.045039	0.130123	-0.008519	1.412350
37.899601	294.158176	0.135128	-0.008703	1.424206
38.810746	305.238028	0.140132	-0.008877	1.435909
39.656600	316.319659	0.145137	-0.009038	1.447495
40.572978	327.389146	0.150142	-0.009213	1.459001
41.723442	338.397025	0.155146	-0.009431	1.470440
42.765956	349.461261	0.160151	-0.009630	1.481807
43.631241	360.589128	0.165156	-0.009795	1.493087
44.370647	371.667462	0.170161	-0.009936	1.504189
45.225476	382.682864	0.175165	-0.010100	1.515189
46.196517	393.744763	0.180170	-0.010284	1.526194
47.051684	404.827136	0.185175	-0.010448	1.537099
47.967866	415.843365	0.190180	-0.010622	1.547885
48.926803	426.923492	0.195184	-0.010805	1.558670
49.944990	437.921152	0.200189	-0.010999	1.569324
51.143024	448.997283	0.205194	-0.011226	1.580037
51.780676	460.105804	0.210198	-0.011349	1.590524
52.815647	471.120649	0.215203	-0.011546	1.600985
53.804521	482.173475	0.220208	-0.011734	1.611397
54.388517	493.307108	0.225213	-0.011846	1.621685
55.069797	504.306642	0.230217	-0.011977	1.631818
56.023132	515.330186	0.235222	-0.012158	1.641996
56.657588	526.400365	0.240227	-0.012280	1.652052
57.546639	537.448240	0.245232	-0.012450	1.662106
58.199903	548.489734	0.250236	-0.012575	1.672021
59.182478	559.523460	0.255241	-0.012762	1.681972
59.772996	570.591068	0.260246	-0.012876	1.691773
60.880283	581.588021	0.265250	-0.013086	1.701614
61.672656	592.661002	0.270255	-0.013238	1.711367
62.525540	603.712533	0.275260	-0.013400	1.721065
63.145091	614.759796	0.280265	-0.013519	1.730634
64.278750	625.768023	0.285269	-0.013735	1.740271
65.000470	636.830437	0.290274	-0.013873	1.749777
65.873464	647.900899	0.295279	-0.014040	1.759284
66.402915	658.957590	0.300283	-0.014142	1.768626
67.309569	669.973694	0.305288	-0.014315	1.777996
67.587515	681.080202	0.310293	-0.014369	1.787209
68.385484	692.044813	0.315298	-0.014522	1.796407
69.161287	703.085393	0.320302	-0.014670	1.805614
70.120912	714.105724	0.325307	-0.014853	1.814810
70.652923	725.187585	0.330312	-0.014956	1.823887
71.408294	736.217568	0.335317	-0.015100	1.832941
71.798301	747.295116	0.340321	-0.015176	1.841886
72.692377	758.287669	0.345326	-0.015346	1.850859
73.216667	769.359378	0.350331	-0.015448	1.859750
74.015876	780.335310	0.355335	-0.015600	1.868598
74.604379	791.437154	0.360340	-0.015713	1.877445
75.255945	802.455267	0.365345	-0.015838	1.886202
75.685996	813.516162	0.370350	-0.015922	1.894892
76.255522	824.529056	0.375354	-0.016031	1.903542
76.885749	835.553319	0.380359	-0.016152	1.912178
77.524099	846.593493	0.385364	-0.016275	1.920789
77.888087	857.662425	0.390369	-0.016346	1.929311
78.788477	868.638014	0.395373	-0.016518	1.937866
79.367284	879.690175	0.400378	-0.016629	1.946356
80.122066	890.703093	0.405383	-0.016773	1.954825
80.506032	901.783340	0.410387	-0.016848	1.963212
81.553036	912.752168	0.415392	-0.017047	1.971650
82.013811	923.856459	0.420397	-0.017136	1.980003
82.610693	934.853466	0.425402	-0.017251	1.988276
83.270825	945.896804	0.430406	-0.017378	1.996564
83.943401	956.916489	0.435411	-0.017507	2.004804
84.415830	967.976241	0.440416	-0.017598	2.012988
85.288918	978.955088	0.445421	-0.017765	2.021181
85.751384	990.049447	0.450425	-0.017854	2.029321
87.116434	1000.888375	0.455430	-0.018113	2.037468
88.732657	1012.003392	0.460435	-0.018419	2.045842
89.491115	1023.097195	0.465439	-0.018564	2.053955
90.180012	1034.136259	0.470444	-0.018696	2.061981
90.750260	1045.202247	0.475449	-0.018806	2.069966
91.501671	1056.199281	0.480454	-0.018950	2.077915
92.338053	1067.216220	0.485458	-0.019109	2.085867
93.029367	1078.275197	0.490463	-0.019242	2.093784
93.719755	1089.286973	0.495468	-0.019374	2.101637
94.586436	1100.314292	0.500472	-0.019539	2.109514
95.273682	1111.358407	0.505477	-0.019671	2.117330
95.889563	1122.394149	0.510482	-0.019789	2.125095
96.402310	1133.441653	0.515487	-0.019888	2.132815
96.916101	1144.446758	0.520491	-0.019987	2.140479
97.698949	1155.458515	0.525496	-0.020137	2.148181
98.257791	1166.528981	0.530501	-0.020245	2.155844
99.042807	1177.512825	0.535506	-0.020395	2.163473
99.566964	1188.568151	0.540510	-0.020496	2.171064
100.124269	1199.616860	0.545515	-0.020603	2.178631
100.747978	1210.611040	0.550520	-0.020723	2.186150
101.880973	1221.571088	0.555524	-0.020938	2.193735
102.445617	1232.697857	0.560529	-0.021047	2.201276
103.287483	1243.685929	0.565534	-0.021207	2.208762
103.647671	1254.764010	0.570539	-0.021278	2.216175
103.875702	1265.801470	0.575543	-0.021323	2.223506
104.616685	1276.741781	0.580548	-0.021465	2.230863
105.551833	1287.786754	0.585553	-0.021643	2.238307
106.151423	1298.839936	0.590558	-0.021758	2.245657
106.807426	1309.874481	0.595562	-0.021884	2.252984
107.084036	1320.929201	0.600567	-0.021939	2.260217
107.565707	1331.929967	0.605572	-0.022032	2.267436
108.167308	1342.946907	0.610576	-0.022148	2.274669
109.077187	1353.912331	0.615581	-0.022321	2.281911
109.620374	1365.006653	0.620586	-0.022426	2.289135
110.088743	1376.040190	0.625591	-0.022516	2.296281
110.362677	1387.084723	0.630595	-0.022571	2.303370
111.076589	1398.030413	0.635600	-0.022707	2.310467
111.678111	1409.106358	0.640605	-0.022823	2.317602
113.004255	1420.015909	0.645610	-0.023074	2.324761
113.482692	1431.191582	0.650614	-0.023167	2.331887
114.016380	1442.175420	0.655619	-0.023270	2.338884
114.601008	1453.179632	0.660624	-0.023382	2.345882
115.179380	1464.226740	0.665628	-0.023493	2.352885
115.762976	1475.244308	0.670633	-0.023606	2.359850
116.237202	1486.282024	0.675638	-0.023697	2.366784
116.666836	1497.314685	0.680643	-0.023781	2.373686
117.451366	1508.282619	0.685647	-0.023931	2.380599
118.195411	1519.325520	0.690652	-0.024073	2.387530
118.864983	1530.361084	0.695657	-0.024201	2.394421
119.432787	1541.398176	0.700661	-0.024311	2.401273
119.710450	1552.443627	0.705666	-0.024365	2.408052
120.156857	1563.452602	0.710671	-0.024452	2.414824
120.616365	1574.483184	0.715676	-0.024541	2.421592
121.146232	1585.475907	0.720680	-0.024643	2.428332
122.185960	1596.447751	0.725685	-0.024841	2.435141
122.646515	1607.531787	0.730690	-0.024930	2.441884
123.357699	1618.564687	0.735695	-0.025066	2.448627
123.807091	1629.577639	0.740699	-0.025153	2.455289
124.302334	1640.616447	0.745704	-0.025249	2.461956
125.021806	1651.593834	0.750709	-0.025387	2.468613
125.677042	1662.648455	0.755713	-0.025512	2.475284
126.161817	1673.670240	0.760718	-0.025606	2.481885
126.625146	1684.731184	0.765723	-0.025696	2.488488
126.929754	1695.737775	0.770728	-0.025756	2.495010
127.321189	1706.747827	0.775732	-0.025832	2.501534
128.042039	1717.745331	0.780737	-0.025970	2.508096
128.710371	1728.765294	0.785742	-0.026098	2.514644
129.123107	1739.826990	0.790747	-0.026178	2.521151
129.911364	1750.797703	0.795751	-0.026329	2.527658
130.468222	1761.855591	0.800756	-0.026436	2.534156
131.304093	1772.825977	0.805761	-0.026595	2.540638
132.086836	1783.887547	0.810765	-0.026745	2.547146
132.646469	1794.930865	0.815770	-0.026853	2.553586
133.103130	1805.931695	0.820775	-0.026941	2.559966
133.770021	1816.960026	0.825780	-0.027069	2.566384
134.315544	1828.007895	0.830784	-0.027174	2.572775
134.625214	1839.069520	0.835789	-0.027235	2.579115
135.086599	1850.026521	0.840794	-0.027324	2.585407
135.675872	1861.047536	0.845799	-0.027438	2.591743
135.965185	1872.100425	0.850803	-0.027495	2.598028
136.469581	1883.098284	0.855808	-0.027592	2.604305
136.954871	1894.104412	0.860813	-0.027686	2.610568
137.502651	1905.126318	0.865817	-0.027791	2.616835
137.927045	1916.170572	0.870822	-0.027874	2.623079
138.458159	1927.163908	0.875827	-0.027976	2.629297
139.039141	1938.182998	0.880832	-0.028088	2.635524
139.752586	1949.206484	0.885836	-0.028224	2.641762
140.261096	1960.249287	0.890841	-0.028323	2.647960
140.549991	1971.293860	0.895846	-0.028380	2.654105
140.920450	1982.290545	0.900850	-0.028452	2.660224
141.424791	1993.300724	0.905855	-0.028549	2.666360
141.940230	2004.332843	0.910860	-0.028649	2.672495
142.645841	2015.304468	0.915865	-0.028784	2.678616
142.958763	2026.404031	0.920869	-0.028845	2.684725
143.426761	2037.383211	0.925874	-0.028936	2.690781
143.942660	2048.391599	0.930879	-0.029035	2.696848
144.613850	2059.393171	0.935884	-0.029164	2.702923
145.125039	2070.414731	0.940888	-0.029263	2.708968
145.704130	2081.439025	0.945893	-0.029374	2.715013
145.999524	2092.483837	0.950898	-0.029432	2.721007
146.630177	2103.480562	0.955902	-0.029553	2.727018
146.969775	2114.529047	0.960907	-0.029620	2.732995
147.344822	2125.516782	0.965912	-0.029693	2.738932
147.923296	2136.525392	0.970917	-0.029804	2.744901
148.455784	2147.590724	0.975921	-0.029907	2.750880
148.876226	2158.575238	0.980926	-0.029988	2.756784
149.366385	2169.605668	0.985931	-0.030083	2.762711
149.827144	2180.624085	0.990936	-0.030172	2.768614
150.318104	2191.637626	0.995940	-0.030267	2.774507
150.719927	2202.675695	1.000945	-0.030345	2.780385
151.128804	2213.687253	1.005950	-0.030425	2.786238
151.484028	2224.734411	1.010954	-0.030494	2.792089
151.877843	2235.723898	1.015959	-0.030571	2.797903
152.385022	2246.740409	1.020964	-0.030668	2.803738
152.932361	2257.751234	1.025969	-0.030774	2.809564
153.286923	2268.807517	1.030973	-0.030843	2.815370
153.721332	2279.817149	1.035978	-0.030927	2.821153
154.264266	2290.797595	1.040983	-0.031032	2.826927
154.747584	2301.860109	1.045988	-0.031125	2.832721
154.989713	2312.853146	1.050992	-0.031174	2.838429
155.463558	2323.893611	1.055997	-0.031265	2.844186
156.163109	2334.876450	1.061002	-0.031399	2.849938
157.003964	2345.893038	1.066006	-0.031560	2.855718
157.207270	2356.971637	1.071011	-0.031601	2.861417
157.499531	2367.957673	1.076016	-0.031658	2.867072
158.095505	2378.972999	1.081021	-0.031773	2.872778
158.425673	2390.005895	1.086025	-0.031837	2.878439
158.941815	2400.997703	1.091030	-0.031937	2.884098
159.472200	2412.041281	1.096035	-0.032039	2.889774
159.742265	2423.072537	1.101039	-0.032093	2.895392
160.417212	2434.063629	1.106044	-0.032222	2.901041
160.952065	2445.089966	1.111049	-0.032325	2.906675
161.342755	2456.112696	1.116054	-0.032401	2.912275
161.818381	2467.114369	1.121058	-0.032493	2.917866
162.278087	2478.141926	1.126063	-0.032582	2.923456
162.672373	2489.168519	1.131068	-0.032659	2.929025
163.092146	2500.197526	1.136073	-0.032740	2.934589
163.319509	2511.219786	1.141077	-0.032786	2.940110
163.889343	2522.215658	1.146082	-0.032895	2.945659
164.026948	2533.268873	1.151087	-0.032924	2.951160
164.503679	2544.250203	1.156091	-0.033016	2.956667
164.901683	2555.285878	1.161096	-0.033093	2.962178
165.437364	2566.286342	1.166101	-0.033197	2.967682
165.903601	2577.329462	1.171106	-0.033287	2.973186
166.290750	2588.326495	1.176110	-0.033362	2.978646
166.665898	2599.346492	1.181115	-0.033435	2.984105
167.250938	2610.373645	1.186120	-0.033548	2.989589
167.560185	2621.381931	1.191125	-0.033609	2.995012
168.141298	2632.410130	1.196129	-0.033720	3.000476
168.405889	2643.432225	1.201134	-0.033773	3.005879
168.967406	2654.446411	1.206139	-0.033881	3.011313
169.174813	2665.460403	1.211143	-0.033923	3.016685
169.707449	2676.463290	1.216148	-0.034025	3.022089
170.235943	2687.491587	1.221153	-0.034127	3.027495
170.846470	2698.511767	1.226158	-0.034244	3.032899
171.169374	2709.542829	1.231162	-0.034308	3.038258
171.685474	2720.536705	1.236167	-0.034407	3.043616
172.007356	2731.584352	1.241172	-0.034470	3.048963
172.428401	2742.585020	1.246177	-0.034552	3.054293
172.891513	2753.602648	1.251181	-0.034642	3.059627
173.249214	2764.614402	1.256186	-0.034712	3.064933
173.815219	2775.665727	1.261191	-0.034821	3.070279
174.074046	2786.672408	1.266195	-0.034872	3.075551
174.480451	2797.685428	1.271200	-0.034951	3.080837
175.012455	2808.674670	1.276205	-0.035053	3.086121
175.339864	2819.720099	1.281210	-0.035118	3.091394
175.645718	2830.738197	1.286214	-0.035178	3.096641
175.929852	2841.745952	1.291219	-0.035234	3.101872
176.355595	2852.762002	1.296224	-0.035316	3.107117
176.748776	2863.788776	1.301228	-0.035393	3.112354
177.251899	2874.805496	1.306233	-0.035490	3.117592
177.641398	2885.824686	1.311238	-0.035566	3.122807
177.970698	2896.845663	1.316243	-0.035630	3.128006
178.271975	2907.865447	1.321247	-0.035690	3.133192
178.593736	2918.866288	1.326252	-0.035753	3.138363
179.012438	2929.879364	1.331257	-0.035834	3.143544
179.528228	2940.910878	1.336262	-0.035933	3.148738
179.985404	2951.925749	1.341266	-0.036022	3.153908
180.384533	2962.956570	1.346271	-0.036100	3.159069
180.658763	2973.963228	1.351276	-0.036154	3.164194
181.174779	2984.971662	1.356280	-0.036253	3.169343
181.519199	2996.000393	1.361285	-0.036321	3.174470
181.971033	3007.014690	1.366290	-0.036408	3.179597
182.207908	3018.038991	1.371295	-0.036455	3.184691
182.555910	3029.052314	1.376299	-0.036523	3.189787
182.753966	3040.080719	1.381304	-0.036563	3.194861
183.363125	3051.073288	1.386309	-0.036680	3.199966
183.759976	3062.096928	1.391314	-0.036757	3.205048
184.160866	3073.142111	1.396318	-0.036835	3.210133
184.212099	3084.153814	1.401323	-0.036848	3.215148
184.516548	3095.143339	1.406328	-0.036908	3.220178
184.994293	3106.143770	1.411332	-0.037000	3.225229
185.488375	3117.195877	1.416337	-0.037095	3.230296
185.942636	3128.192980	1.421342	-0.037183	3.235326
186.446028	3139.203220	1.426347	-0.037281	3.240360
186.693438	3150.262373	1.431351	-0.037330	3.245375
187.137780	3161.240667	1.436356	-0.037416	3.250371
187.419363	3172.280908	1.441361	-0.037471	3.255366
187.977526	3183.265404	1.446366	-0.037579	3.260364
188.426223	3194.302848	1.451370	-0.037666	3.265364
188.752593	3205.317878	1.456375	-0.037730	3.270330
188.963691	3216.352823	1.461380	-0.037772	3.275283
189.325648	3227.350412	1.466384	-0.037843	3.280231
189.636102	3238.399314	1.471389	-0.037904	3.285188
190.102305	3249.389915	1.476394	-0.037994	3.290131
190.530261	3260.383753	1.481399	-0.038077	3.295063
190.989003	3271.423116	1.486403	-0.038166	3.300012
191.546084	3282.429687	1.491408	-0.038273	3.304951
191.873003	3293.462706	1.496413	-0.038337	3.309865
192.077223	3304.478515	1.501417	-0.038378	3.314749
192.423813	3315.508062	1.506422	-0.038446	3.319650
192.704367	3326.500463	1.511427	-0.038501	3.324519
192.966816	3337.549951	1.516432	-0.038553	3.329403
193.152540	3348.526426	1.521436	-0.038591	3.334239
193.724297	3359.542165	1.526441	-0.038701	3.339132
194.097083	3370.579234	1.531446	-0.038773	3.344003
194.606740	3381.579210	1.536451	-0.038872	3.348868
194.950281	3392.595084	1.541455	-0.038939	3.353711
195.355397	3403.629307	1.546460	-0.039018	3.358564
195.784040	3414.635186	1.551465	-0.039101	3.363399
196.458413	3425.647472	1.556469	-0.039230	3.368261
196.676607	3436.682959	1.561474	-0.039274	3.373069
197.323970	3447.664885	1.566479	-0.039398	3.377900
197.664120	3458.718653	1.571484	-0.039465	3.382718
197.958221	3469.718827	1.576488	-0.039523	3.387500
198.204837	3480.749524	1.581493	-0.039572	3.392282
198.605171	3491.733596	1.586498	-0.039649	3.397056
198.987851	3502.778413	1.591503	-0.039724	3.401848
199.397890	3513.795886	1.596507	-0.039804	3.406624
199.605341	3524.816216	1.601512	-0.039845	3.411370
199.952022	3535.806891	1.606517	-0.039913	3.416114
200.446341	3546.836598	1.611521	-0.040008	3.420885
201.104781	3557.816964	1.616526	-0.040135	3.425647
201.593396	3568.884419	1.621531	-0.040229	3.430420
201.866488	3579.887064	1.626536	-0.040283	3.435134
202.188077	3590.910076	1.631540	-0.040346	3.439855
202.498886	3601.926478	1.636545	-0.040407	3.444565
202.672320	3612.976194	1.641550	-0.040443	3.449267
203.117363	3623.916198	1.646555	-0.040529	3.453948
203.569222	3634.970143	1.651559	-0.040616	3.458671
203.902642	3645.981832	1.656564	-0.040682	3.463357
204.139440	3657.024877	1.661569	-0.040729	3.468037
204.468265	3668.002167	1.666573	-0.040793	3.472695
204.798386	3679.040982	1.671578	-0.040858	3.477372
205.196420	3690.044388	1.676583	-0.040935	3.482035
205.529343	3701.088165	1.681588	-0.041000	3.486702
205.862667	3712.064092	1.686592	-0.041066	3.491334
206.173237	3723.103715	1.691597	-0.041127	3.495984
206.500087	3734.100009	1.696602	-0.041191	3.500612
206.822018	3745.158960	1.701606	-0.041254	3.505258
207.124511	3756.143623	1.706611	-0.041313	3.509866
207.372601	3767.180314	1.711616	-0.041363	3.514483
207.658329	3778.201229	1.716621	-0.041419	3.519091
207.974398	3789.211308	1.721625	-0.041481	3.523692
208.385975	3800.205695	1.726630	-0.041561	3.528292
208.658332	3811.233571	1.731635	-0.041615	3.532883
209.107285	3822.234397	1.736640	-0.041702	3.537477
209.420732	3833.261511	1.741644	-0.041763	3.542061
209.736251	3844.274584	1.746649	-0.041825	3.546633
210.046342	3855.302862	1.751654	-0.041886	3.551205
210.328495	3866.304496	1.756658	-0.041942	3.555757
210.740887	3877.322035	1.761663	-0.042022	3.560324
211.143285	3888.327818	1.766668	-0.042100	3.564879
211.543880	3899.360741	1.771673	-0.042178	3.569439
211.908049	3910.356762	1.776677	-0.042249	3.573974
212.061574	3921.422675	1.781682	-0.042281	3.578508
212.614508	3932.380696	1.786687	-0.042387	3.583037
212.912729	3943.430293	1.791692	-0.042446	3.587569
213.327400	3954.415458	1.796696	-0.042526	3.592082
213.507394	3965.458108	1.801701	-0.042563	3.596587
213.944722	3976.452446	1.806706	-0.042648	3.601095
214.444216	3987.481439	1.811710	-0.042744	3.605617
214.799638	3998.505866	1.816715	-0.042814	3.610117
215.063338	4009.513821	1.821720	-0.042866	3.614594
215.426513	4020.514721	1.826725	-0.042937	3.619073
215.780515	4031.571526	1.831729	-0.043006	3.623569
216.125042	4042.539374	1.836734	-0.043073	3.628022
216.276069	4053.607072	1.841739	-0.043104	3.632489
216.686135	4064.574295	1.846744	-0.043184	3.636937
216.957025	4075.610686	1.851748	-0.043237	3.641393
217.259467	4086.633820	1.856753	-0.043297	3.645842
217.639726	4097.651004	1.861758	-0.043371	3.650291
218.035157	4108.696742	1.866762	-0.043448	3.654747
218.405996	4119.721295	1.871767	-0.043520	3.659187
218.841716	4130.731591	1.876772	-0.043605	3.663622
219.120753	4141.780176	1.881777	-0.043660	3.668051
219.367120	4152.762944	1.886781	-0.043709	3.672445
219.655065	4163.778887	1.891786	-0.043766	3.676851
219.989777	4174.776411	1.896791	-0.043831	3.681249
220.414796	4185.819805	1.901795	-0.043914	3.685670
220.736413	4196.831158	1.906800	-0.043977	3.690061
221.137778	4207.832006	1.911805	-0.044055	3.694452
221.380136	4218.858348	1.916810	-0.044103	3.698831
221.663437	4229.906351	1.921814	-0.044159	3.703217
222.133259	4240.882860	1.926819	-0.044250	3.707589
222.493784	4251.921691	1.931824	-0.044320	3.711969
222.879684	4262.900545	1.936829	-0.044395	3.716323
223.049515	4273.942092	1.941833	-0.044430	3.720675
223.452750	4284.944422	1.946838	-0.044508	3.725029
223.882736	4295.966643	1.951843	-0.044592	3.729389
224.251061	4306.965314	1.956847	-0.044663	3.733729
224.647262	4317.998713	1.961852	-0.044740	3.738079
224.959437	4329.014079	1.966857	-0.044802	3.742409
