Wed Nov 23 19:06:18 2022

Number of Points = 2200
Depth (nm)	Load (µN)	Time (s)	Depth (V)	Load (V)
-1.087773	1.328543	0.000000	0.007196	1.038170
0.000000	7.849690	0.005005	0.006991	1.047928
1.267164	17.098055	0.010009	0.006751	1.061470
2.165666	27.856901	0.015014	0.006579	1.076719
3.144051	38.881676	0.020019	0.006393	1.092152
3.912516	50.041078	0.025024	0.006246	1.107446
4.961710	61.123417	0.030028	0.006047	1.122565
5.585205	72.326143	0.035033	0.005927	1.137435
6.335835	83.439496	0.040038	0.005783	1.152059
7.170489	94.480597	0.045043	0.005624	1.166446
15.122416	104.178719	0.050047	0.004129	1.182236
16.468496	116.351955	0.055052	0.003874	1.197877
18.182199	127.647231	0.060057	0.003549	1.212414
19.317557	138.887893	0.065061	0.003334	1.226459
20.609398	149.988365	0.070066	0.003088	1.240246
21.692392	161.097792	0.075071	0.002882	1.253802
23.018198	172.208995	0.080076	0.002631	1.267317
24.088193	183.309279	0.085080	0.002427	1.280568
25.238776	194.389205	0.090085	0.002209	1.293694
26.418363	205.535344	0.095090	0.001985	1.306773
27.369227	216.609685	0.100094	0.001804	1.319549
28.284326	227.687736	0.105099	0.001629	1.332191
29.481741	238.747181	0.110104	0.001402	1.344806
30.433542	249.842505	0.115109	0.001220	1.357246
31.533300	260.901268	0.120113	0.001011	1.369590
32.464889	272.012887	0.125118	0.000834	1.381814
33.479286	283.070137	0.130123	0.000641	1.393905
34.393412	294.149651	0.135128	0.000466	1.405877
35.301026	305.241188	0.140132	0.000293	1.417757
36.172814	316.289753	0.145137	0.000127	1.429481
37.351836	327.324239	0.150142	-0.000097	1.441207
38.448280	338.412112	0.155146	-0.000305	1.452862
39.256189	349.514858	0.160151	-0.000460	1.464334
39.920468	360.596920	0.165156	-0.000587	1.475644
40.949974	371.618755	0.170161	-0.000783	1.486938
41.557266	382.738154	0.175165	-0.000900	1.498093
42.367842	393.755380	0.180170	-0.001055	1.509137
43.167467	404.819675	0.185175	-0.001207	1.520142
44.333152	415.827618	0.190180	-0.001429	1.531140
45.193486	426.927411	0.195184	-0.001593	1.542041
46.234174	437.959359	0.200189	-0.001791	1.552863
47.057042	449.037085	0.205194	-0.001948	1.563579
47.950786	460.086648	0.210198	-0.002119	1.574219
48.844553	471.150982	0.215203	-0.002289	1.584800
49.714508	482.199681	0.220208	-0.002455	1.595289
50.517262	493.249115	0.225213	-0.002608	1.605687
51.599943	504.277705	0.230217	-0.002814	1.616090
52.439009	515.359322	0.235222	-0.002975	1.626395
53.173811	526.417047	0.240227	-0.003115	1.636581
54.162822	537.430265	0.245232	-0.003303	1.646743
55.061474	548.489261	0.250236	-0.003475	1.656855
55.883284	559.536173	0.255241	-0.003632	1.666871
56.482314	570.644796	0.260246	-0.003747	1.676811
57.163530	581.657248	0.265250	-0.003877	1.686634
57.947016	592.707735	0.270255	-0.004027	1.696464
58.853995	603.699340	0.275260	-0.004200	1.706224
59.686576	614.791436	0.280265	-0.004359	1.715991
60.478354	625.813120	0.285269	-0.004510	1.725631
61.325689	636.870846	0.290274	-0.004672	1.735263
62.087996	647.902022	0.295279	-0.004818	1.744795
62.950221	658.952310	0.300283	-0.004982	1.754319
63.623877	670.008063	0.305288	-0.005112	1.763742
64.361891	681.057550	0.310293	-0.005253	1.773127
65.204142	692.067141	0.315298	-0.005414	1.782460
66.024378	703.105813	0.320302	-0.005570	1.791761
66.451677	714.210598	0.325307	-0.005653	1.800956
67.260028	725.195906	0.330312	-0.005807	1.810115
67.870912	736.262370	0.335317	-0.005925	1.819237
68.818581	747.243289	0.340321	-0.006105	1.828339
69.380049	758.350649	0.345326	-0.006213	1.837389
70.216367	769.352480	0.350331	-0.006373	1.846387
70.898312	780.394410	0.355335	-0.006504	1.855330
71.802781	791.418748	0.360340	-0.006676	1.864277
72.621565	802.441757	0.365345	-0.006833	1.873156
73.363458	813.521738	0.370350	-0.006975	1.882016
73.937998	824.573906	0.375354	-0.007085	1.890768
74.644995	835.585660	0.380359	-0.007221	1.899484
75.208586	846.633255	0.385364	-0.007329	1.908149
75.794883	857.671036	0.390369	-0.007442	1.916773
76.433479	868.699711	0.395373	-0.007564	1.925365
77.183964	879.727737	0.400378	-0.007708	1.933947
77.709942	890.779590	0.405383	-0.007809	1.942450
78.314504	901.795302	0.410387	-0.007925	1.950910
78.838321	912.849708	0.415392	-0.008026	1.959341
79.545592	923.848654	0.420397	-0.008162	1.967741
80.550967	934.854810	0.425402	-0.008353	1.976187
81.496508	945.889430	0.430406	-0.008533	1.984602
82.101985	956.956264	0.435411	-0.008650	1.992919
82.666705	968.015218	0.440416	-0.008759	2.001185
83.030845	979.055596	0.445421	-0.008830	2.009353
83.906803	990.041926	0.450425	-0.008997	2.017576
84.571715	1001.090019	0.455430	-0.009124	2.025758
85.150801	1012.141732	0.460435	-0.009236	2.033887
85.369960	1023.199730	0.465439	-0.009279	2.041900
86.005993	1034.200677	0.470444	-0.009401	2.049944
86.624375	1045.244916	0.475449	-0.009520	2.057981
87.272920	1056.244751	0.480454	-0.009645	2.065964
87.865266	1067.286424	0.485458	-0.009759	2.073931
88.507513	1078.318121	0.490463	-0.009882	2.081872
89.158165	1089.358964	0.495468	-0.010007	2.089792
89.651971	1100.415827	0.500472	-0.010102	2.097655
89.951169	1111.436663	0.505477	-0.010161	2.105417
90.634668	1122.414063	0.510482	-0.010292	2.113211
91.155446	1133.483432	0.515487	-0.010392	2.121002
91.726738	1144.514336	0.520491	-0.010502	2.128749
92.234407	1155.538968	0.525496	-0.010600	2.136449
92.792537	1166.548636	0.530501	-0.010708	2.144122
93.317908	1177.601869	0.535506	-0.010809	2.151790
94.014762	1188.607087	0.540510	-0.010942	2.159438
94.449503	1199.655703	0.545515	-0.011027	2.167027
94.962750	1210.698792	0.550520	-0.011126	2.174604
95.543493	1221.672117	0.555524	-0.011237	2.182123
96.235954	1232.718888	0.560529	-0.011370	2.189690
96.780604	1243.753214	0.565534	-0.011475	2.197190
97.458863	1254.781194	0.570539	-0.011605	2.204689
97.874564	1265.822572	0.575543	-0.011686	2.212113
98.344441	1276.861111	0.580548	-0.011777	2.219522
98.956762	1287.826188	0.585553	-0.011894	2.226889
99.603047	1298.905963	0.590558	-0.012018	2.234315
99.923489	1309.912292	0.595562	-0.012081	2.241596
100.589976	1320.946228	0.600567	-0.012209	2.248948
101.111144	1332.000507	0.605572	-0.012310	2.256256
101.696917	1342.969164	0.610576	-0.012422	2.263500
102.379644	1354.014787	0.615581	-0.012553	2.270790
102.838032	1365.070871	0.620586	-0.012642	2.278016
103.235918	1376.073296	0.625591	-0.012719	2.285171
103.997182	1387.079744	0.630595	-0.012865	2.292384
104.513978	1398.127196	0.635600	-0.012964	2.299548
105.170472	1409.124884	0.640605	-0.013090	2.306687
105.670546	1420.186356	0.645610	-0.013187	2.313812
106.232657	1431.183786	0.650614	-0.013295	2.320887
106.596173	1442.250906	0.655619	-0.013366	2.327943
106.890747	1453.287061	0.660624	-0.013424	2.334944
107.244022	1464.293969	0.665628	-0.013493	2.341917
107.855961	1475.277840	0.670633	-0.013611	2.348909
108.433389	1486.330420	0.675638	-0.013722	2.355915
108.875574	1497.357880	0.680643	-0.013807	2.362858
109.391185	1508.378065	0.685647	-0.013907	2.369790
110.042908	1519.375266	0.690652	-0.014032	2.376715
110.730586	1530.401831	0.695657	-0.014164	2.383645
111.089076	1541.466172	0.700661	-0.014234	2.390512
111.673295	1552.465082	0.705666	-0.014346	2.397364
112.163455	1563.504263	0.710671	-0.014441	2.404202
112.631482	1574.506390	0.715676	-0.014531	2.410994
113.127524	1585.555266	0.720680	-0.014627	2.417800
113.364278	1596.583224	0.725685	-0.014674	2.424523
114.099051	1607.564604	0.730690	-0.014815	2.431297
114.331573	1618.642005	0.735695	-0.014861	2.438012
114.851858	1629.646497	0.740699	-0.014962	2.444720
115.069709	1640.661569	0.745704	-0.015005	2.451357
115.742945	1651.673774	0.750709	-0.015134	2.458064
116.267198	1662.694807	0.755713	-0.015235	2.464728
116.891093	1673.720271	0.760718	-0.015355	2.471396
117.344177	1684.752910	0.765723	-0.015443	2.478017
117.786462	1695.772663	0.770728	-0.015529	2.484610
118.026838	1706.843438	0.775732	-0.015576	2.491177
118.285283	1717.844264	0.780737	-0.015628	2.497690
118.867899	1728.822005	0.785742	-0.015740	2.504233
119.385665	1739.868262	0.790747	-0.015840	2.510787
119.800821	1750.889707	0.795751	-0.015920	2.517290
120.187778	1761.928684	0.800756	-0.015995	2.523781
120.630097	1772.928593	0.805761	-0.016081	2.530242
121.103128	1783.945434	0.810765	-0.016173	2.536703
121.521340	1794.994655	0.815770	-0.016254	2.543156
121.900202	1806.007286	0.820775	-0.016328	2.549563
122.279958	1817.011929	0.825780	-0.016402	2.555950
122.863212	1828.043228	0.830784	-0.016514	2.562374
123.384898	1839.049780	0.835789	-0.016614	2.568756
124.021623	1850.124532	0.840794	-0.016737	2.575182
124.572212	1861.086371	0.845799	-0.016843	2.581512
125.156678	1872.144131	0.850803	-0.016955	2.587887
125.360297	1883.143168	0.855808	-0.016996	2.594144
125.991118	1894.160982	0.860813	-0.017117	2.600473
126.453841	1905.187558	0.865817	-0.017207	2.606762
127.012229	1916.218871	0.870822	-0.017314	2.613055
127.255188	1927.242716	0.875827	-0.017363	2.619272
127.798083	1938.232845	0.880832	-0.017467	2.625509
128.348080	1949.264401	0.885836	-0.017573	2.631755
128.904787	1960.297723	0.890841	-0.017680	2.637989
129.082082	1971.337566	0.895846	-0.017716	2.644144
129.757250	1982.323761	0.900850	-0.017846	2.650343
130.115449	1993.387235	0.905855	-0.017916	2.656515
130.450661	2004.380377	0.910860	-0.017981	2.662629
130.833473	2015.388680	0.915865	-0.018056	2.668745
131.293873	2026.432922	0.920869	-0.018145	2.674881
131.865836	2037.415801	0.925874	-0.018255	2.680988
132.445383	2048.443837	0.930879	-0.018366	2.687107
132.866531	2059.470367	0.935884	-0.018448	2.693184
133.266134	2070.471057	0.940888	-0.018526	2.699230
133.737890	2081.489149	0.945893	-0.018617	2.705283
134.197281	2092.524299	0.950898	-0.018706	2.711330
134.424744	2103.574349	0.955902	-0.018751	2.717332
134.881021	2114.541702	0.960907	-0.018840	2.723315
135.310718	2125.585746	0.965912	-0.018923	2.729322
135.648007	2136.610248	0.970917	-0.018989	2.735289
136.108336	2147.628815	0.975921	-0.019078	2.741260
136.575085	2158.634264	0.980926	-0.019169	2.747213
137.052060	2169.662145	0.985931	-0.019261	2.753166
137.364477	2180.671332	0.990936	-0.019322	2.759069
137.621525	2191.725935	0.995940	-0.019373	2.764974
138.018724	2202.721722	1.000945	-0.019450	2.770858
138.392925	2213.749747	1.005950	-0.019523	2.776743
138.874858	2224.758544	1.010954	-0.019617	2.782623
139.129825	2235.784688	1.015959	-0.019667	2.788462
139.430118	2246.811219	1.020964	-0.019726	2.794297
139.774648	2257.830102	1.025969	-0.019794	2.800123
140.417016	2268.800134	1.030973	-0.019917	2.805959
141.100725	2279.860080	1.035978	-0.020048	2.811836
141.496862	2290.872248	1.040983	-0.020125	2.817630
141.669552	2301.914829	1.045988	-0.020160	2.823392
142.262403	2312.903155	1.050992	-0.020274	2.829181
142.722276	2323.923214	1.055997	-0.020363	2.834953
143.077787	2334.969481	1.061002	-0.020432	2.840711
143.393423	2345.992044	1.066006	-0.020494	2.846438
143.721534	2357.002940	1.071011	-0.020559	2.852149
144.011237	2368.001229	1.076016	-0.020616	2.857836
144.447625	2379.048033	1.081021	-0.020700	2.863560
144.674111	2390.054810	1.086025	-0.020746	2.869219
145.167855	2401.082346	1.091030	-0.020841	2.874919
145.393169	2412.095651	1.096035	-0.020886	2.880559
145.718501	2423.124122	1.101039	-0.020950	2.886211
146.016205	2434.152239	1.106044	-0.021008	2.891847
146.530031	2445.131099	1.111049	-0.021107	2.897480
147.036785	2456.139666	1.116054	-0.021205	2.903117
147.707135	2467.162391	1.121058	-0.021334	2.908775
148.116529	2478.214979	1.126063	-0.021413	2.914396
148.343373	2489.226796	1.131068	-0.021459	2.919958
148.722305	2500.245331	1.136073	-0.021532	2.925536
149.193795	2511.257775	1.141077	-0.021624	2.931115
149.626340	2522.271664	1.146082	-0.021708	2.936677
150.068143	2533.282793	1.151087	-0.021793	2.942229
150.375999	2544.330140	1.156091	-0.021854	2.947768
150.724154	2555.336021	1.161096	-0.021922	2.953282
151.031450	2566.345606	1.166101	-0.021982	2.958782
151.515277	2577.366813	1.171106	-0.022076	2.964303
151.911909	2588.408276	1.176110	-0.022153	2.969811
152.285182	2599.400351	1.181115	-0.022226	2.975280
152.683815	2610.422583	1.186120	-0.022303	2.980759
153.163396	2621.430936	1.191125	-0.022396	2.986232
153.484592	2632.466303	1.196129	-0.022459	2.991685
153.979982	2643.453098	1.201134	-0.022554	2.997129
154.373764	2654.506366	1.206139	-0.022631	3.002582
154.669793	2665.523597	1.211143	-0.022689	3.007992
154.901205	2676.550842	1.216148	-0.022736	3.013388
155.436130	2687.541825	1.221153	-0.022839	3.018801
155.708706	2698.571140	1.226158	-0.022893	3.024185
156.258674	2709.589688	1.231162	-0.022998	3.029594
156.446298	2720.613960	1.236167	-0.023036	3.034943
156.894983	2731.620720	1.241172	-0.023123	3.040312
157.198189	2742.646056	1.246177	-0.023183	3.045660
157.889511	2753.669031	1.251181	-0.023315	3.051053
158.325873	2764.656584	1.256186	-0.023400	3.056382
158.876566	2775.667630	1.261191	-0.023506	3.061730
159.425859	2786.705491	1.266195	-0.023612	3.067081
159.682280	2797.732966	1.271200	-0.023663	3.072376
160.076980	2808.750511	1.276205	-0.023739	3.077676
160.435430	2819.766014	1.281210	-0.023809	3.082961
160.892763	2830.789955	1.286214	-0.023898	3.088255
161.051498	2841.808215	1.291219	-0.023930	3.093496
161.485392	2852.814187	1.296224	-0.024015	3.098760
161.901790	2863.820018	1.301228	-0.024095	3.104012
162.258037	2874.869991	1.306233	-0.024165	3.109268
162.788706	2885.855727	1.311238	-0.024267	3.114509
163.236083	2896.888402	1.316243	-0.024354	3.119751
163.640520	2907.915428	1.321247	-0.024433	3.124976
164.007185	2918.941069	1.326252	-0.024504	3.130187
164.456677	2929.927704	1.331257	-0.024591	3.135381
164.817178	2940.965183	1.336262	-0.024662	3.140579
165.223865	2951.981623	1.341266	-0.024741	3.145764
165.595475	2963.002748	1.346271	-0.024813	3.150938
166.065625	2973.996720	1.351276	-0.024904	3.156105
166.405470	2985.035156	1.356280	-0.024971	3.161265
166.962970	2996.039234	1.361285	-0.025078	3.166431
167.274745	3007.062522	1.366290	-0.025139	3.171564
167.777807	3018.066539	1.371295	-0.025236	3.176705
167.964658	3029.114470	1.376299	-0.025274	3.181816
168.264234	3040.132613	1.381304	-0.025333	3.186920
168.598290	3051.124664	1.386309	-0.025398	3.192008
169.029570	3062.151390	1.391314	-0.025482	3.197117
169.253379	3073.177822	1.396318	-0.025527	3.202190
169.830897	3084.181742	1.401323	-0.025638	3.207291
170.034653	3095.215352	1.406328	-0.025679	3.212348
170.444390	3106.215228	1.411332	-0.025758	3.217410
170.894434	3117.217078	1.416337	-0.025846	3.222469
171.408532	3128.250557	1.421342	-0.025945	3.227543
171.826443	3139.262078	1.426347	-0.026026	3.232586
172.202838	3150.301803	1.431351	-0.026099	3.237629
172.565061	3161.295407	1.436356	-0.026170	3.242641
173.034982	3172.334325	1.441361	-0.026261	3.247679
173.167683	3183.341293	1.446366	-0.026289	3.252652
173.381400	3194.381614	1.451370	-0.026331	3.257642
173.706747	3205.363926	1.456375	-0.026395	3.262614
174.090368	3216.404496	1.461380	-0.026470	3.267611
174.356856	3227.398114	1.466384	-0.026523	3.272564
174.884754	3238.415765	1.471389	-0.026624	3.277554
175.210427	3249.437041	1.476394	-0.026688	3.282512
175.860498	3260.455031	1.481399	-0.026813	3.287502
176.291879	3271.474052	1.486403	-0.026897	3.292457
176.575723	3282.484561	1.491408	-0.026953	3.297383
177.063308	3293.495453	1.496413	-0.027047	3.302326
177.491166	3304.533951	1.501417	-0.027130	3.307267
177.735963	3315.534619	1.506422	-0.027178	3.312161
178.301985	3326.552742	1.511427	-0.027287	3.317095
178.558713	3337.583996	1.516432	-0.027338	3.321989
178.901549	3348.591792	1.521436	-0.027405	3.326877
179.110465	3359.634774	1.526441	-0.027447	3.331755
179.426926	3370.613942	1.531446	-0.027509	3.336612
179.697789	3381.640822	1.536451	-0.027563	3.341477
180.139437	3392.660903	1.541455	-0.027649	3.346353
180.441627	3403.688128	1.546460	-0.027708	3.351208
180.631994	3414.701501	1.551465	-0.027746	3.356036
180.822777	3425.715744	1.556469	-0.027785	3.360857
181.299933	3436.729531	1.561474	-0.027877	3.365706
181.567046	3447.731535	1.566479	-0.027930	3.370518
182.285729	3458.736114	1.571484	-0.028068	3.375378
182.747217	3469.772967	1.576488	-0.028157	3.380214
183.090373	3480.813646	1.581493	-0.028224	3.385030
183.411367	3491.785420	1.586498	-0.028287	3.389807
183.621889	3502.823363	1.591503	-0.028329	3.394593
184.289410	3513.827348	1.596507	-0.028457	3.399411
184.737524	3524.862910	1.601512	-0.028544	3.404210
184.885591	3535.888801	1.606517	-0.028575	3.408963
185.199056	3546.891551	1.611521	-0.028636	3.413718
185.402401	3557.901844	1.616526	-0.028677	3.418457
186.072857	3568.897450	1.621531	-0.028805	3.423238
186.360874	3579.957213	1.626536	-0.028862	3.427995
186.843615	3590.935504	1.631540	-0.028956	3.432733
187.090739	3601.984286	1.636545	-0.029005	3.437467
187.446191	3612.976745	1.641550	-0.029074	3.442183
187.655923	3624.032175	1.646555	-0.029116	3.446903
188.157741	3635.004045	1.651559	-0.029213	3.451614
188.555905	3646.027298	1.656564	-0.029291	3.456329
188.869498	3657.051562	1.661569	-0.029352	3.461027
189.087111	3668.074570	1.666573	-0.029396	3.465708
189.841689	3679.045318	1.671578	-0.029540	3.470422
190.032341	3690.108421	1.676583	-0.029578	3.475103
190.442018	3701.125152	1.681588	-0.029658	3.479784
190.601052	3712.152788	1.686592	-0.029691	3.484434
191.019839	3723.151125	1.691597	-0.029772	3.489096
191.225891	3734.158510	1.696602	-0.029813	3.493730
191.620671	3745.194199	1.701606	-0.029890	3.498392
191.908890	3756.189516	1.706611	-0.029947	3.503019
192.555231	3767.207742	1.711616	-0.030071	3.507689
192.742755	3778.218304	1.716621	-0.030109	3.512298
192.951531	3789.259504	1.721625	-0.030151	3.516916
193.143325	3800.265895	1.726630	-0.030189	3.521512
193.525182	3811.284254	1.731635	-0.030264	3.526128
193.872101	3822.300486	1.736640	-0.030332	3.530733
194.446119	3833.287356	1.741644	-0.030442	3.535345
194.712279	3844.332234	1.746649	-0.030495	3.539941
195.144852	3855.344526	1.751654	-0.030579	3.544535
195.302150	3866.368446	1.756658	-0.030611	3.549098
195.770333	3877.355585	1.761663	-0.030701	3.553674
196.016486	3888.431491	1.766668	-0.030750	3.558256
196.319611	3899.390214	1.771673	-0.030810	3.562791
196.615916	3910.444214	1.776677	-0.030868	3.567358
197.070734	3921.412943	1.781682	-0.030956	3.571901
197.612074	3932.439303	1.786687	-0.031061	3.576472
198.052418	3943.453013	1.791692	-0.031146	3.581020
198.380719	3954.491946	1.796696	-0.031210	3.585561
198.973186	3965.476155	1.801701	-0.031324	3.590102
199.225681	3976.524070	1.806706	-0.031374	3.594626
199.739014	3987.516620	1.811710	-0.031473	3.599151
200.138734	3998.562179	1.816715	-0.031551	3.603679
200.496247	4009.578520	1.821720	-0.031621	3.608184
200.696905	4020.565775	1.826725	-0.031661	3.612656
201.121298	4031.600130	1.831729	-0.031744	3.617164
201.252754	4042.604885	1.836734	-0.031771	3.621624
201.744694	4053.644778	1.841739	-0.031866	3.626131
201.894586	4064.646690	1.846744	-0.031897	3.630581
202.275682	4075.660907	1.851748	-0.031971	3.635054
202.542997	4086.657674	1.856753	-0.032024	3.639503
203.113980	4097.708674	1.861758	-0.032134	3.644000
203.558573	4108.743246	1.866762	-0.032220	3.648472
203.670879	4119.799618	1.871767	-0.032244	3.652912
203.999095	4130.784684	1.876772	-0.032308	3.657340
204.540000	4141.766615	1.881777	-0.032412	3.661784
204.878067	4152.821828	1.886781	-0.032479	3.666231
205.261768	4163.831781	1.891786	-0.032553	3.670659
205.616135	4174.848920	1.896791	-0.032623	3.675081
205.976820	4185.844992	1.901795	-0.032693	3.679491
206.109379	4196.900767	1.906800	-0.032721	3.683894
206.615310	4207.897709	1.911805	-0.032818	3.688308
206.791075	4218.914649	1.916810	-0.032854	3.692691
207.231658	4229.934335	1.921814	-0.032939	3.697096
207.461300	4240.933862	1.926819	-0.032985	3.701467
207.961745	4251.930873	1.931824	-0.033082	3.705859
208.128366	4262.982806	1.936829	-0.033116	3.710233
208.588488	4273.961561	1.941833	-0.033205	3.714603
208.835784	4285.018270	1.946838	-0.033254	3.718977
209.318283	4296.011496	1.951843	-0.033347	3.723345
209.613025	4307.028334	1.956847	-0.033405	3.727697
209.862533	4318.064397	1.961852	-0.033455	3.732048
210.248344	4329.051299	1.966857	-0.033530	3.736388
210.652203	4340.073031	1.971862	-0.033608	3.740738
