Wed Nov 23 18:09:14 2022

Number of Points = 2200
Depth (nm)	Load (µN)	Time (s)	Depth (V)	Load (V)
-10.605071	0.533885	0.000000	-0.001927	1.062197
0.000000	5.794164	0.005005	-0.003918	1.074803
5.340909	16.113614	0.010009	-0.004923	1.091457
7.718903	27.631256	0.015014	-0.005372	1.107997
9.291183	39.037723	0.020019	-0.005670	1.123760
10.363257	50.317948	0.025024	-0.005874	1.138903
11.439078	61.464971	0.030028	-0.006079	1.153680
12.190788	72.670899	0.035033	-0.006222	1.168193
13.028418	83.779081	0.040038	-0.006382	1.182446
13.504210	94.939461	0.045043	-0.006474	1.196430
14.115100	106.061442	0.050047	-0.006592	1.210265
14.542940	117.199979	0.055052	-0.006675	1.223882
14.817004	128.325519	0.060057	-0.006729	1.237268
15.169879	139.386742	0.065061	-0.006798	1.250468
15.613483	150.498372	0.070066	-0.006884	1.263628
16.051363	161.554481	0.075071	-0.006969	1.276585
16.441156	172.668720	0.080076	-0.007045	1.289457
16.683538	183.819879	0.085080	-0.007093	1.302184
17.240942	194.823013	0.090085	-0.007200	1.314750
17.490318	205.936068	0.095090	-0.007250	1.327194
18.041369	216.966422	0.100094	-0.007356	1.339552
18.297731	228.073019	0.105099	-0.007407	1.351763
18.658311	239.158906	0.110104	-0.007477	1.363883
19.080369	250.192252	0.115109	-0.007559	1.375864
19.468040	261.301886	0.120113	-0.007635	1.387808
19.715352	272.375896	0.125118	-0.007684	1.399560
20.189684	283.419413	0.130123	-0.007775	1.411268
20.344258	294.522795	0.135128	-0.007807	1.422821
20.759387	305.549430	0.140132	-0.007888	1.434299
21.007754	316.657075	0.145137	-0.007937	1.445707
21.396132	327.695332	0.150142	-0.008013	1.457006
21.645792	338.761474	0.155146	-0.008062	1.468196
22.002754	349.820963	0.160151	-0.008132	1.479333
22.351434	360.854957	0.165156	-0.008200	1.490359
22.888402	371.911359	0.170161	-0.008304	1.501391
23.076052	383.006911	0.175165	-0.008342	1.512259
23.550446	394.042727	0.180170	-0.008433	1.523091
23.744833	405.125061	0.185175	-0.008473	1.533794
24.168783	416.150750	0.190180	-0.008555	1.544448
24.397732	427.229397	0.195184	-0.008601	1.555012
24.664568	438.286245	0.200189	-0.008653	1.565498
24.778182	449.366154	0.205194	-0.008678	1.575883
25.046954	460.379164	0.210198	-0.008731	1.586190
25.239811	471.446665	0.215203	-0.008770	1.596456
25.588695	482.481232	0.220208	-0.008838	1.606677
25.913281	493.523785	0.225213	-0.008901	1.616832
28.455205	503.764815	0.230217	-0.009381	1.626913
57.527585	511.260324	0.235222	-0.014838	1.642914
58.057567	526.293962	0.240227	-0.014941	1.656438
58.335932	537.699239	0.245232	-0.014996	1.666586
58.864734	548.750962	0.250236	-0.015098	1.676441
59.588823	559.751025	0.255241	-0.015237	1.686253
60.271603	570.845203	0.260246	-0.015368	1.696077
60.944804	581.859310	0.265250	-0.015497	1.705773
61.750505	592.898967	0.270255	-0.015651	1.715475
62.157643	603.987186	0.275260	-0.015730	1.725044
62.872042	614.997529	0.280265	-0.015866	1.734585
63.579045	626.022120	0.285269	-0.016002	1.744084
64.378572	637.066940	0.290274	-0.016155	1.753575
64.955641	648.135398	0.295279	-0.016266	1.762970
65.556849	659.174179	0.300283	-0.016381	1.772296
66.383505	670.173878	0.305288	-0.016539	1.781607
67.468405	681.188501	0.310293	-0.016745	1.790955
67.915418	692.299881	0.315298	-0.016832	1.800151
68.743256	703.295609	0.320302	-0.016990	1.809314
69.490434	714.337476	0.325307	-0.017133	1.818445
70.222046	725.410008	0.330312	-0.017273	1.827550
70.935524	736.423407	0.335317	-0.017410	1.836558
71.684475	747.471747	0.340321	-0.017553	1.845559
72.500274	758.493203	0.345326	-0.017709	1.854513
73.135360	769.548930	0.350331	-0.017831	1.863401
73.725257	780.589324	0.355335	-0.017944	1.872222
74.328727	791.638365	0.360340	-0.018060	1.881012
74.895450	802.656436	0.365345	-0.018169	1.889727
75.709751	813.700661	0.370350	-0.018325	1.898488
76.346515	824.716179	0.375354	-0.018447	1.907140
77.124574	835.751658	0.380359	-0.018595	1.915804
77.695207	846.811548	0.385364	-0.018705	1.924393
78.378664	857.845332	0.390369	-0.018836	1.932954
78.985964	868.867371	0.395373	-0.018953	1.941448
79.653207	879.890426	0.400378	-0.019081	1.949920
80.251375	890.932921	0.405383	-0.019196	1.958353
81.146699	901.935272	0.410387	-0.019367	1.966796
81.778704	913.000873	0.415392	-0.019488	1.975181
82.842433	923.983286	0.420397	-0.019690	1.983580
83.254305	935.094335	0.425402	-0.019770	1.991872
83.802501	946.105869	0.430406	-0.019876	2.000091
84.126430	957.163094	0.435411	-0.019939	2.008253
84.766020	968.204764	0.440416	-0.020062	2.016449
85.243293	979.202993	0.445421	-0.020154	2.024541
86.100051	990.185294	0.450425	-0.020318	2.032682
86.652127	1001.276498	0.455430	-0.020424	2.040794
87.392642	1012.275234	0.460435	-0.020566	2.048853
88.099812	1023.315917	0.465439	-0.020701	2.056902
89.285819	1034.283255	0.470444	-0.020927	2.064984
89.904624	1045.393606	0.475449	-0.021045	2.072997
90.312107	1056.462176	0.480454	-0.021125	2.080900
91.044613	1067.428003	0.485458	-0.021265	2.088778
91.666087	1078.500193	0.490463	-0.021384	2.096674
92.281272	1089.486674	0.495468	-0.021502	2.104479
92.943954	1100.543086	0.500472	-0.021629	2.112314
93.370581	1111.588510	0.505477	-0.021712	2.120058
93.978331	1122.594995	0.510482	-0.021829	2.127788
94.465925	1133.648150	0.515487	-0.021923	2.135495
95.152561	1144.637168	0.520491	-0.022055	2.143175
96.001191	1155.641789	0.525496	-0.022217	2.150877
96.715346	1166.718677	0.530501	-0.022353	2.158568
97.180721	1177.745263	0.535506	-0.022443	2.166141
98.169341	1188.734538	0.540510	-0.022632	2.173781
98.609687	1199.815473	0.545515	-0.022717	2.181331
99.785123	1210.745424	0.550520	-0.022940	2.188921
100.506506	1221.832193	0.555524	-0.023078	2.196486
101.061997	1232.901089	0.560529	-0.023185	2.203975
101.400512	1243.932637	0.565534	-0.023252	2.211366
101.962251	1254.935618	0.570539	-0.023360	2.218763
102.753506	1265.939770	0.575543	-0.023511	2.226187
103.364153	1276.976693	0.580548	-0.023628	2.233567
103.909872	1288.013702	0.585553	-0.023733	2.240909
104.039649	1299.099242	0.590558	-0.023760	2.248167
104.697541	1310.081033	0.595562	-0.023887	2.255450
105.214590	1321.084792	0.600567	-0.023986	2.262692
105.912447	1332.100791	0.605572	-0.024120	2.269958
106.890543	1343.085887	0.610576	-0.024306	2.277241
107.384890	1354.212956	0.615581	-0.024402	2.284488
107.791692	1365.191542	0.620586	-0.024481	2.291598
108.198699	1376.231557	0.625591	-0.024560	2.298725
109.196491	1387.184614	0.630595	-0.024750	2.305900
109.685727	1398.303341	0.635600	-0.024844	2.313050
110.180351	1409.289456	0.640605	-0.024940	2.320095
110.595151	1420.343968	0.645610	-0.025021	2.327145
111.209870	1431.368354	0.650614	-0.025139	2.334196
111.462445	1442.375310	0.655619	-0.025189	2.341140
112.293571	1453.366013	0.660624	-0.025347	2.348172
112.886993	1464.434226	0.665628	-0.025462	2.355183
113.383925	1475.414578	0.670633	-0.025558	2.362098
113.696627	1486.523115	0.675638	-0.025619	2.369034
114.379453	1497.473632	0.680643	-0.025750	2.375928
115.029410	1508.499377	0.685647	-0.025874	2.382842
115.678739	1519.528544	0.690652	-0.025999	2.389737
116.102131	1530.583144	0.695657	-0.026081	2.396582
116.623233	1541.588909	0.700661	-0.026182	2.403397
117.067814	1552.631811	0.705666	-0.026268	2.410201
117.544379	1563.630871	0.710671	-0.026360	2.416964
117.961708	1574.699002	0.715676	-0.026441	2.423739
118.322577	1585.674908	0.720680	-0.026511	2.430428
118.546554	1596.741247	0.725685	-0.026556	2.437125
118.914849	1607.752576	0.730690	-0.026628	2.443800
119.689146	1618.703413	0.735695	-0.026776	2.450500
120.393233	1629.756277	0.740699	-0.026911	2.457228
121.096062	1640.786752	0.745704	-0.027046	2.463924
121.472173	1651.834875	0.750709	-0.027119	2.470549
121.886689	1662.858686	0.755713	-0.027199	2.477149
122.381326	1673.873451	0.760718	-0.027295	2.483741
123.223988	1684.840375	0.765723	-0.027456	2.490354
123.893895	1695.907927	0.770728	-0.027584	2.496976
124.548327	1706.930729	0.775732	-0.027710	2.503550
124.930523	1717.958197	0.780737	-0.027784	2.510059
125.356993	1728.994589	0.785742	-0.027867	2.516564
125.693448	1740.040842	0.790747	-0.027933	2.523041
126.108125	1751.011588	0.795751	-0.028013	2.529472
126.643407	1762.037619	0.800756	-0.028116	2.535941
127.029177	1773.085508	0.805761	-0.028192	2.542378
127.407000	1784.087547	0.810765	-0.028265	2.548771
127.706179	1795.140097	0.815770	-0.028324	2.555163
128.430652	1806.100730	0.820775	-0.028463	2.561564
128.895987	1817.177556	0.825780	-0.028553	2.567967
129.291127	1828.236304	0.830784	-0.028630	2.574332
129.442869	1839.245289	0.835789	-0.028661	2.580608
129.791158	1850.218218	0.840794	-0.028729	2.586884
130.181673	1861.255654	0.845799	-0.028805	2.593188
130.729333	1872.240471	0.850803	-0.028910	2.599476
131.279547	1883.279071	0.855808	-0.029016	2.605780
131.883301	1894.289847	0.860813	-0.029132	2.612062
132.229153	1905.356702	0.865817	-0.029200	2.618314
132.778508	1916.307661	0.870822	-0.029306	2.624522
133.307176	1927.371904	0.875827	-0.029408	2.630775
133.624961	1938.391644	0.880832	-0.029470	2.636951
134.072083	1949.430606	0.885836	-0.029557	2.643146
134.539747	1960.426202	0.890841	-0.029647	2.649306
134.768231	1971.495398	0.895846	-0.029693	2.655451
135.157194	1982.458067	0.900850	-0.029769	2.661550
135.590672	1993.493206	0.905855	-0.029853	2.667683
136.372916	2004.489440	0.910860	-0.030002	2.673841
136.625540	2015.557909	0.915865	-0.030052	2.679932
136.942788	2026.550611	0.920869	-0.030115	2.685979
137.461079	2037.588858	0.925874	-0.030215	2.692072
137.931848	2048.556639	0.930879	-0.030306	2.698105
138.722060	2059.543462	0.935884	-0.030457	2.704189
139.521718	2070.602255	0.940888	-0.030609	2.710299
139.880914	2081.643100	0.945893	-0.030679	2.716311
140.151983	2092.671513	0.950898	-0.030733	2.722288
140.630530	2103.675600	0.955902	-0.030826	2.728274
141.076175	2114.680946	0.960907	-0.030912	2.734242
141.574171	2125.712028	0.965912	-0.031008	2.740219
141.813088	2136.745873	0.970917	-0.031056	2.746141
142.023093	2147.801148	0.975921	-0.031098	2.752057
142.372089	2158.751022	0.980926	-0.031166	2.757927
142.736518	2169.795957	0.985931	-0.031237	2.763838
143.451467	2180.783295	0.990936	-0.031374	2.769763
143.899683	2191.830303	0.995940	-0.031461	2.775663
144.080770	2202.883122	1.000945	-0.031498	2.781510
144.339589	2213.905457	1.005950	-0.031549	2.787340
144.480702	2224.881684	1.010954	-0.031578	2.793116
144.935993	2235.916372	1.015959	-0.031666	2.798961
145.287373	2246.930921	1.020964	-0.031735	2.804766
145.937497	2257.938408	1.025969	-0.031860	2.810604
146.184048	2268.978672	1.030973	-0.031909	2.816382
146.783096	2279.999588	1.035978	-0.032024	2.822194
147.092088	2290.983994	1.040983	-0.032084	2.827929
147.567833	2302.013321	1.045988	-0.032176	2.833702
148.304698	2313.029908	1.050992	-0.032317	2.839498
148.820815	2324.049949	1.055997	-0.032417	2.845248
149.243137	2335.097486	1.061002	-0.032499	2.850987
149.417425	2346.131367	1.066006	-0.032534	2.856667
149.704393	2357.108730	1.071011	-0.032591	2.862325
150.560262	2368.105288	1.076016	-0.032754	2.868071
150.925718	2379.160238	1.081021	-0.032826	2.873758
151.359665	2390.185143	1.086025	-0.032910	2.879429
151.307334	2401.238507	1.091030	-0.032903	2.885028
151.656292	2412.246502	1.096035	-0.032971	2.890655
152.266946	2423.209238	1.101039	-0.033088	2.896288
152.630702	2434.262732	1.106044	-0.033159	2.901919
152.903598	2445.275857	1.111049	-0.033213	2.907504
153.178306	2456.304949	1.116054	-0.033267	2.913086
153.450609	2467.304523	1.121058	-0.033321	2.918643
154.230246	2478.296311	1.126063	-0.033470	2.924262
154.929562	2489.329601	1.131068	-0.033604	2.929879
155.429169	2500.371015	1.136073	-0.033701	2.935458
155.703244	2511.377554	1.141077	-0.033755	2.940976
156.164123	2522.403122	1.146082	-0.033844	2.946520
156.604265	2533.402690	1.151087	-0.033929	2.952039
157.021100	2544.441147	1.156091	-0.034010	2.957562
157.634188	2555.431186	1.161096	-0.034128	2.963081
158.079440	2566.488737	1.166101	-0.034214	2.968597
158.338988	2577.490716	1.171106	-0.034266	2.974048
158.759470	2588.524417	1.176110	-0.034347	2.979528
159.045668	2599.533978	1.181115	-0.034404	2.984967
159.719207	2610.538579	1.186120	-0.034533	2.990450
160.053293	2621.567133	1.191125	-0.034598	2.995885
160.520853	2632.593264	1.196129	-0.034689	3.001328
160.683973	2643.608096	1.201134	-0.034722	3.006711
161.142056	2654.625093	1.206139	-0.034811	3.012129
161.513030	2665.606703	1.211143	-0.034883	3.017507
161.911969	2676.672905	1.216148	-0.034961	3.022920
162.345270	2687.674718	1.221153	-0.035045	3.028297
162.678728	2698.696615	1.226158	-0.035110	3.033660
163.019152	2709.710341	1.231162	-0.035177	3.039011
164.042660	2720.659650	1.236167	-0.035371	3.044419
165.274744	2731.689213	1.241172	-0.035605	3.049885
166.139908	2742.742849	1.246177	-0.035770	3.055300
166.895479	2753.748978	1.251181	-0.035915	3.060668
167.526134	2764.794058	1.256186	-0.036036	3.066026
168.102452	2775.781464	1.261191	-0.036147	3.071340
168.701763	2786.809971	1.266195	-0.036262	3.076668
169.099546	2797.855436	1.271200	-0.036339	3.081965
169.501383	2808.872972	1.276205	-0.036417	3.087241
169.910566	2819.879207	1.281210	-0.036497	3.092504
170.218972	2830.913905	1.286214	-0.036558	3.097757
170.699516	2841.892308	1.291219	-0.036650	3.102998
171.377093	2852.949210	1.296224	-0.036780	3.108294
171.808282	2863.945983	1.301228	-0.036864	3.113519
172.025213	2874.993459	1.306233	-0.036907	3.118730
172.414843	2885.982146	1.311238	-0.036983	3.123927
173.149541	2896.995791	1.316243	-0.037124	3.129175
173.583147	2908.013302	1.321247	-0.037208	3.134375
173.980499	2919.070268	1.326252	-0.037285	3.139580
174.307754	2930.065080	1.331257	-0.037349	3.144737
174.646925	2941.091627	1.336262	-0.037416	3.149902
174.790140	2952.090120	1.341266	-0.037445	3.155019
175.286162	2963.129817	1.346271	-0.037541	3.160194
175.744695	2974.120620	1.351276	-0.037630	3.165333
176.102306	2985.171390	1.356280	-0.037700	3.170478
176.143717	2996.158886	1.361285	-0.037710	3.175543
176.578031	3007.181478	1.366290	-0.037794	3.180668
176.994823	3018.183830	1.371295	-0.037875	3.185774
177.386587	3029.230629	1.376299	-0.037952	3.190888
177.675895	3040.227629	1.381304	-0.038009	3.195957
178.011446	3051.279605	1.386309	-0.038074	3.201050
178.346830	3062.260512	1.391314	-0.038140	3.206102
178.817387	3073.290659	1.396318	-0.038231	3.211186
179.484174	3084.260063	1.401323	-0.038359	3.216260
179.986321	3095.307412	1.406328	-0.038456	3.221340
180.503243	3106.328465	1.411332	-0.038556	3.226402
180.680974	3117.382238	1.416337	-0.038592	3.231426
180.883686	3128.350065	1.421342	-0.038632	3.236407
181.552452	3139.385220	1.426347	-0.038761	3.241471
182.042299	3150.396060	1.431351	-0.038855	3.246493
182.487458	3161.424770	1.436356	-0.038941	3.251509
182.570535	3172.438384	1.441361	-0.038960	3.256464
182.930786	3183.468221	1.446366	-0.039030	3.261454
183.250916	3194.483517	1.451370	-0.039093	3.266425
183.612881	3205.475289	1.456375	-0.039164	3.271383
183.794825	3216.518718	1.461380	-0.039200	3.276333
184.255088	3227.518553	1.466384	-0.039290	3.281292
184.695432	3238.541873	1.471389	-0.039375	3.286252
185.219105	3249.550119	1.476394	-0.039476	3.291207
185.645512	3260.555247	1.481399	-0.039559	3.296141
186.290005	3271.585166	1.486403	-0.039682	3.301107
186.551313	3282.602631	1.491408	-0.039734	3.306011
187.045224	3293.626651	1.496413	-0.039829	3.310939
187.193393	3304.653575	1.501417	-0.039860	3.315819
187.554279	3315.655131	1.506422	-0.039930	3.320706
187.820587	3326.676543	1.511427	-0.039983	3.325583
188.463613	3337.664928	1.516432	-0.040106	3.330486
188.471734	3348.731685	1.521436	-0.040111	3.335336
189.124630	3359.697752	1.526441	-0.040236	3.340215
189.253325	3370.775226	1.531446	-0.040263	3.345071
189.624829	3381.749049	1.536451	-0.040335	3.349905
189.824768	3392.768666	1.541455	-0.040376	3.354730
190.266500	3403.794622	1.546460	-0.040461	3.359581
190.365532	3414.823044	1.551465	-0.040482	3.364384
190.741468	3425.846623	1.556469	-0.040556	3.369211
190.796835	3436.827546	1.561474	-0.040569	3.373975
191.308365	3447.846702	1.566479	-0.040668	3.378803
191.504031	3458.864038	1.571484	-0.040707	3.383585
191.687296	3469.910754	1.576488	-0.040744	3.388372
191.928713	3480.891774	1.581493	-0.040792	3.393130
192.185706	3491.929141	1.586498	-0.040843	3.397908
192.744226	3502.909303	1.591503	-0.040951	3.402691
193.330386	3513.964061	1.596507	-0.041063	3.407502
193.612714	3524.942113	1.601512	-0.041119	3.412237
194.105045	3535.981165	1.606517	-0.041214	3.417016
194.394450	3547.003864	1.611521	-0.041271	3.421758
194.774331	3558.011958	1.616526	-0.041345	3.426498
195.525020	3568.994734	1.621531	-0.041489	3.431263
196.036641	3580.063219	1.626536	-0.041587	3.436031
196.353485	3591.057135	1.631540	-0.041650	3.440737
196.722134	3602.086010	1.636545	-0.041722	3.445457
196.915511	3613.104129	1.641550	-0.041761	3.450146
197.463085	3624.104978	1.646555	-0.041866	3.454862
197.894163	3635.106797	1.651559	-0.041950	3.459559
198.238671	3646.167744	1.656564	-0.042017	3.464264
198.624712	3657.157752	1.661569	-0.042092	3.468938
198.736664	3668.206107	1.666573	-0.042116	3.473598
199.203304	3679.170840	1.671578	-0.042206	3.478258
199.588985	3690.216789	1.676583	-0.042281	3.482936
199.992103	3701.209059	1.681588	-0.042360	3.487587
200.422997	3712.252114	1.686592	-0.042443	3.492256
200.597945	3723.258236	1.691597	-0.042479	3.496875
201.072384	3734.262665	1.696602	-0.042571	3.501520
201.510229	3745.278612	1.701606	-0.042655	3.506160
201.787366	3756.308936	1.706611	-0.042710	3.510782
202.093865	3767.331049	1.711616	-0.042770	3.515397
202.404962	3778.355396	1.716621	-0.042832	3.520007
202.657660	3789.347749	1.721625	-0.042882	3.524592
202.996694	3800.399965	1.726630	-0.042948	3.529205
203.250685	3811.377349	1.731635	-0.042998	3.533772
203.847955	3822.405867	1.736640	-0.043113	3.538392
203.924205	3833.420930	1.741644	-0.043130	3.542942
204.335609	3844.438058	1.746649	-0.043210	3.547524
204.565093	3855.429144	1.751654	-0.043256	3.552070
204.894773	3866.477555	1.756658	-0.043321	3.556644
205.217281	3877.463977	1.761663	-0.043384	3.561187
205.547586	3888.511435	1.766668	-0.043448	3.565749
205.978727	3899.485999	1.771673	-0.043532	3.570286
206.269922	3910.540676	1.776677	-0.043589	3.574835
206.499087	3921.536730	1.781682	-0.043635	3.579348
207.082844	3932.541808	1.786687	-0.043747	3.583897
207.318767	3943.617399	1.791692	-0.043794	3.588431
207.757063	3954.587176	1.796696	-0.043879	3.592938
208.106946	3965.593904	1.801701	-0.043948	3.597445
208.530024	3976.629947	1.806706	-0.044030	3.601966
208.746291	3987.628758	1.811710	-0.044073	3.606444
208.877146	3998.675694	1.816715	-0.044101	3.610927
209.389556	4009.629107	1.821720	-0.044199	3.615407
209.763109	4020.684451	1.826725	-0.044272	3.619907
210.204039	4031.688001	1.831729	-0.044358	3.624389
210.772690	4042.712944	1.836734	-0.044467	3.628887
210.821026	4053.742591	1.841739	-0.044479	3.633326
211.327006	4064.761542	1.846744	-0.044577	3.637803
211.562519	4075.754384	1.851748	-0.044623	3.642236
211.856044	4086.777541	1.856753	-0.044681	3.646682
212.347247	4097.804613	1.861758	-0.044776	3.651144
212.758082	4108.858905	1.866762	-0.044856	3.655604
213.105196	4119.856098	1.871767	-0.044924	3.660028
213.527208	4130.891959	1.876772	-0.045006	3.664471
213.684030	4141.902708	1.881777	-0.045038	3.668870
214.145443	4152.907666	1.886781	-0.045127	3.673293
214.393896	4163.944953	1.891786	-0.045177	3.677702
214.950882	4174.945131	1.896791	-0.045284	3.682122
215.190701	4185.964407	1.901795	-0.045332	3.686512
215.457406	4196.980556	1.906800	-0.045384	3.690898
215.875622	4207.997518	1.911805	-0.045466	3.695295
216.154844	4219.003932	1.916810	-0.045521	3.699668
216.430339	4230.018243	1.921814	-0.045575	3.704038
216.887165	4241.032120	1.926819	-0.045663	3.708422
217.187289	4252.057913	1.931824	-0.045723	3.712789
217.728037	4263.089582	1.936829	-0.045827	3.717178
217.834849	4274.073321	1.941833	-0.045850	3.721498
218.397093	4285.087880	1.946838	-0.045958	3.725872
218.665492	4296.120606	1.951843	-0.046011	3.730218
218.942180	4307.136335	1.956847	-0.046065	3.734552
219.233324	4318.131791	1.961852	-0.046123	3.738876
219.445191	4329.175014	1.966857	-0.046165	3.743205
