Wed Nov 23 18:47:16 2022

Number of Points = 2200
Depth (nm)	Load (µN)	Time (s)	Depth (V)	Load (V)
-3.793377	-0.958938	0.000000	0.057284	0.882513
0.000000	5.792209	0.005005	0.056571	0.896099
3.742094	14.920919	0.010009	0.055867	0.913308
6.981145	25.641761	0.015014	0.055256	0.932428
10.607048	36.609710	0.020019	0.054573	0.951768
13.988100	47.860016	0.025024	0.053936	0.971011
16.735441	59.249266	0.030028	0.053418	0.989734
19.792263	70.414182	0.035033	0.052841	1.007946
22.454378	81.670685	0.040038	0.052339	1.025753
25.197100	92.896386	0.045043	0.051821	1.043253
27.412960	104.181597	0.050047	0.051403	1.060272
29.674508	115.359488	0.055052	0.050976	1.076897
31.885081	126.533538	0.060057	0.050558	1.093237
33.817981	137.744395	0.065061	0.050193	1.109247
36.186801	148.818366	0.070066	0.049745	1.125058
38.204534	160.026600	0.075071	0.049364	1.140656
40.226289	171.160488	0.080076	0.048982	1.155947
42.144523	182.295490	0.085080	0.048619	1.170992
44.323839	193.396647	0.090085	0.048208	1.185921
46.218856	204.551646	0.095090	0.047849	1.200601
48.280535	215.653025	0.100094	0.047460	1.215111
49.725852	226.866759	0.105099	0.047186	1.229312
51.465021	237.938883	0.110104	0.046857	1.243309
53.090013	249.067166	0.115109	0.046549	1.257167
55.073490	260.091607	0.120113	0.046174	1.270903
56.593429	271.277963	0.125118	0.045886	1.284483
58.259115	282.360839	0.130123	0.045571	1.297863
59.689374	293.539078	0.135128	0.045300	1.311116
61.533336	304.474645	0.140132	0.044951	1.324132
62.912175	315.690759	0.145137	0.044689	1.337144
64.635611	326.667917	0.150142	0.044363	1.349904
66.077991	337.841739	0.155146	0.044090	1.362647
67.444583	348.901135	0.160151	0.043831	1.375118
68.779180	360.014588	0.165156	0.043578	1.387522
70.212281	371.068309	0.170161	0.043306	1.399789
71.174793	382.230352	0.175165	0.043123	1.411885
72.827626	393.163651	0.180170	0.042810	1.423898
74.133133	404.296100	0.185175	0.042562	1.435886
75.632392	415.333487	0.190180	0.042278	1.447748
76.709548	426.498680	0.195184	0.042073	1.459488
77.769473	437.541234	0.200189	0.041871	1.471004
79.085508	448.555952	0.205194	0.041622	1.482494
80.481009	459.635716	0.210198	0.041357	1.493988
81.685250	470.713189	0.215203	0.041128	1.505324
82.912307	481.759410	0.220208	0.040895	1.516551
83.951813	492.869422	0.225213	0.040698	1.527692
85.179654	503.912120	0.230217	0.040465	1.538752
85.826228	515.049479	0.235222	0.040340	1.549624
87.299718	525.953624	0.240227	0.040061	1.560480
88.644151	537.040608	0.245232	0.039806	1.571388
89.738546	548.143814	0.250236	0.039598	1.582152
90.643512	559.217329	0.255241	0.039426	1.592752
91.724420	570.237714	0.260246	0.039220	1.603291
92.686355	581.324865	0.265250	0.039037	1.613782
93.703960	592.384005	0.270255	0.038843	1.624198
94.677700	603.410310	0.275260	0.038658	1.634503
95.796059	614.438703	0.280265	0.038445	1.644791
96.952804	625.496751	0.285269	0.038225	1.655054
97.922858	636.557550	0.290274	0.038041	1.665196
99.067589	647.578409	0.295279	0.037823	1.675295
100.193367	658.639225	0.300283	0.037609	1.685363
101.169560	669.716952	0.305288	0.037423	1.695338
101.950570	680.792020	0.310293	0.037274	1.705193
102.875655	691.798935	0.315298	0.037098	1.714976
103.899479	702.833956	0.320302	0.036903	1.724757
104.838276	713.891782	0.325307	0.036724	1.734476
105.736068	724.935105	0.330312	0.036553	1.744116
106.487292	736.004014	0.335317	0.036409	1.753681
107.476942	747.011054	0.340321	0.036221	1.763211
108.238707	758.110203	0.345326	0.036075	1.772700
109.170364	769.111137	0.350331	0.035897	1.782107
110.024878	780.139425	0.355335	0.035734	1.791463
110.857512	791.219030	0.360340	0.035575	1.800807
111.579366	802.253549	0.365345	0.035437	1.810033
112.522488	813.273980	0.370350	0.035257	1.819264
113.396124	824.291167	0.375354	0.035091	1.828425
114.351744	835.356290	0.380359	0.034909	1.837602
115.074014	846.420781	0.385364	0.034770	1.846667
115.980104	857.430421	0.390369	0.034598	1.855695
116.620537	868.492716	0.395373	0.034475	1.864647
117.554378	879.523187	0.400378	0.034297	1.873611
118.095143	890.571430	0.405383	0.034193	1.882439
118.986568	901.583481	0.410387	0.034023	1.891293
119.649742	912.650217	0.415392	0.033895	1.900086
120.438934	923.671589	0.420397	0.033745	1.908836
121.001201	934.708120	0.425402	0.033636	1.917498
121.987117	945.726804	0.430406	0.033449	1.926219
122.849562	956.733170	0.435411	0.033284	1.934858
123.746754	967.807588	0.440416	0.033113	1.943519
124.233095	978.874891	0.445421	0.033019	1.952029
125.004076	989.875436	0.450425	0.032872	1.960525
125.854203	1000.888625	0.455430	0.032709	1.969015
126.696721	1011.944797	0.460435	0.032549	1.977497
127.313569	1022.971569	0.465439	0.032430	1.985864
128.280742	1034.009538	0.470444	0.032246	1.994292
128.968384	1045.043568	0.475449	0.032114	2.002611
129.704391	1056.119331	0.480454	0.031973	2.010938
130.340198	1067.121434	0.485458	0.031851	2.019152
131.251908	1078.138101	0.490463	0.031677	2.027411
131.685580	1089.223546	0.495468	0.031593	2.035568
132.310851	1100.230847	0.500472	0.031473	2.043682
133.022072	1111.235880	0.505477	0.031337	2.051784
133.905485	1122.260634	0.510482	0.031169	2.059910
134.801392	1133.284595	0.515487	0.030998	2.068007
135.482391	1144.359130	0.520491	0.030867	2.076055
135.836179	1155.410241	0.525496	0.030798	2.083976
136.592157	1166.413495	0.530501	0.030654	2.091929
137.031066	1177.460462	0.535506	0.030568	2.099808
137.856599	1188.434488	0.540510	0.030411	2.107697
138.765183	1199.475324	0.545515	0.030238	2.115624
139.428717	1210.516358	0.550520	0.030110	2.123462
139.849099	1221.576086	0.555524	0.030029	2.131228
140.726118	1232.560986	0.560529	0.029861	2.139020
141.224695	1243.624679	0.565534	0.029765	2.146749
142.010683	1254.630787	0.570539	0.029615	2.154478
142.702769	1265.656352	0.575543	0.029482	2.162171
143.476464	1276.698267	0.580548	0.029334	2.169865
143.927592	1287.755518	0.585553	0.029247	2.177469
144.707722	1298.728077	0.590558	0.029098	2.185064
145.363802	1309.773524	0.595562	0.028972	2.192653
146.095017	1320.816525	0.600567	0.028832	2.200232
146.649103	1331.846893	0.605572	0.028725	2.207735
147.279924	1342.874208	0.610576	0.028604	2.215228
147.813878	1353.882208	0.615581	0.028501	2.222661
148.673776	1364.908108	0.620586	0.028337	2.230154
149.353024	1375.930227	0.625591	0.028207	2.237579
149.912222	1387.007145	0.630595	0.028100	2.244988
150.411539	1398.002671	0.635600	0.028003	2.252306
151.040832	1409.064713	0.640605	0.027882	2.259672
151.650390	1420.040427	0.645610	0.027765	2.266954
152.636919	1431.008692	0.650614	0.027577	2.274289
153.363112	1442.113873	0.655619	0.027438	2.281632
153.946653	1453.144214	0.660624	0.027326	2.288873
154.145560	1464.197803	0.665628	0.027286	2.296023
155.107750	1475.120937	0.670633	0.027103	2.303230
155.608504	1486.229207	0.675638	0.027006	2.310434
156.369018	1497.212385	0.680643	0.026861	2.317591
156.742718	1508.295405	0.685647	0.026788	2.324708
157.447353	1519.277343	0.690652	0.026653	2.331808
157.897027	1530.332232	0.695657	0.026566	2.338880
158.948792	1541.254360	0.700661	0.026366	2.345971
159.679970	1552.345154	0.705666	0.026226	2.353081
160.254182	1563.401660	0.710671	0.026115	2.360114
160.805527	1574.411130	0.715676	0.026009	2.367093
161.308503	1585.460905	0.720680	0.025912	2.374065
161.730872	1596.453319	0.725685	0.025830	2.380966
162.577354	1607.450362	0.730690	0.025668	2.387935
163.184472	1618.521992	0.735695	0.025552	2.394881
163.798180	1629.524815	0.740699	0.025434	2.401766
164.103446	1640.604546	0.745704	0.025374	2.408616
164.669860	1651.581536	0.750709	0.025265	2.415436
165.555703	1662.539335	0.755713	0.025096	2.422289
166.376727	1673.610503	0.760718	0.024939	2.429178
166.837657	1684.656488	0.765723	0.024850	2.435961
167.613756	1695.650072	0.770728	0.024702	2.442756
168.127902	1706.696345	0.775732	0.024602	2.449511
168.768045	1717.722777	0.780737	0.024480	2.456260
169.293424	1728.747825	0.785742	0.024378	2.462968
169.972024	1739.748174	0.790747	0.024248	2.469672
170.506839	1750.803520	0.795751	0.024145	2.476363
170.886226	1761.832379	0.800756	0.024071	2.482989
171.348268	1772.843501	0.805761	0.023982	2.489604
171.977438	1783.870653	0.810765	0.023861	2.496242
172.386865	1794.889226	0.815770	0.023781	2.502815
172.939493	1805.901206	0.820775	0.023675	2.509394
173.771940	1816.895772	0.825780	0.023516	2.515999
174.420535	1827.959218	0.830784	0.023392	2.522592
174.860792	1838.969450	0.835789	0.023306	2.529097
175.414933	1849.997583	0.840794	0.023200	2.535617
175.811592	1861.028801	0.845799	0.023122	2.542092
176.381676	1872.042113	0.850803	0.023013	2.548573
176.830233	1883.057181	0.855808	0.022926	2.555016
177.730597	1894.052632	0.860813	0.022754	2.561514
178.049101	1905.127963	0.865817	0.022692	2.567935
178.982356	1916.139596	0.870822	0.022514	2.574416
179.177267	1927.197159	0.875827	0.022475	2.580771
179.886067	1938.135411	0.880832	0.022339	2.587136
180.368201	1949.218366	0.885836	0.022246	2.593526
180.868858	1960.193060	0.890841	0.022149	2.599843
181.507265	1971.224709	0.895846	0.022026	2.606201
182.105209	1982.264192	0.900850	0.021911	2.612541
182.819304	1993.258331	0.905855	0.021775	2.618861
183.198880	2004.301282	0.910860	0.021701	2.625132
183.615284	2015.341545	0.915865	0.021620	2.631393
184.192346	2026.337258	0.920869	0.021509	2.637644
184.661799	2037.366410	0.925874	0.021418	2.643879
185.362802	2048.342829	0.930879	0.021284	2.650110
185.800799	2059.401600	0.935884	0.021199	2.656326
186.237000	2070.412652	0.940888	0.021114	2.662501
186.616477	2081.411867	0.945893	0.021040	2.668645
187.443220	2092.414564	0.950898	0.020883	2.674854
187.984100	2103.464133	0.955902	0.020778	2.681025
188.698684	2114.462034	0.960907	0.020642	2.687184
189.040328	2125.545961	0.965912	0.020575	2.693310
189.335114	2136.529050	0.970917	0.020517	2.699360
189.713965	2147.540417	0.975921	0.020443	2.705426
190.537566	2158.549781	0.980926	0.020286	2.711553
190.984030	2169.595220	0.985931	0.020199	2.717621
191.604539	2180.585651	0.990936	0.020080	2.723676
192.137463	2191.626030	0.995940	0.019977	2.729729
192.768097	2202.657375	1.000945	0.019856	2.735780
193.233093	2213.646275	1.005950	0.019766	2.741766
194.176517	2224.654581	1.010954	0.019586	2.747831
194.781368	2235.701239	1.015959	0.019470	2.753845
195.252453	2246.725225	1.020964	0.019379	2.759812
195.711587	2257.753366	1.025969	0.019290	2.765766
196.241910	2268.784748	1.030973	0.019188	2.771721
196.512417	2279.786296	1.035978	0.019134	2.777604
197.070239	2290.802023	1.040983	0.019027	2.783529
197.572380	2301.824994	1.045988	0.018930	2.789436
198.161977	2312.846465	1.050992	0.018817	2.795344
198.552575	2323.889832	1.055997	0.018741	2.801218
198.808115	2334.889974	1.061002	0.018690	2.807036
199.291622	2345.922886	1.066006	0.018597	2.812895
199.843467	2356.897797	1.071011	0.018490	2.818723
200.478564	2367.935546	1.076016	0.018368	2.824585
200.930684	2378.969719	1.081021	0.018281	2.830403
201.299987	2389.990858	1.086025	0.018209	2.836189
202.035749	2400.986005	1.091030	0.018068	2.842008
202.650893	2412.004443	1.096035	0.017950	2.847808
203.177820	2423.052773	1.101039	0.017848	2.853598
203.568459	2434.055278	1.106044	0.017772	2.859330
204.003304	2445.084321	1.111049	0.017688	2.865072
204.362438	2456.118547	1.116054	0.017618	2.870792
204.892402	2467.126284	1.121058	0.017516	2.876514
205.352926	2478.145535	1.126063	0.017427	2.882220
205.838743	2489.146323	1.131068	0.017333	2.887909
206.128506	2500.213000	1.136073	0.017276	2.893589
206.538915	2511.195894	1.141077	0.017196	2.899235
207.093899	2522.190881	1.146082	0.017089	2.904898
208.060394	2533.206086	1.151087	0.016905	2.910624
208.191555	2544.276316	1.156091	0.016878	2.916237
208.723406	2555.282778	1.161096	0.016775	2.921869
209.005991	2566.297158	1.166101	0.016719	2.927455
209.540530	2577.286546	1.171106	0.016616	2.933057
209.980919	2588.320022	1.176110	0.016531	2.938656
210.533665	2599.351465	1.181115	0.016424	2.944260
210.706374	2610.388756	1.186120	0.016389	2.949798
211.268757	2621.376852	1.191125	0.016281	2.955360
211.505413	2632.429916	1.196129	0.016234	2.960895
212.095332	2643.399305	1.201134	0.016120	2.966432
212.471375	2654.454674	1.206139	0.016047	2.971968
213.011024	2665.432291	1.211143	0.015943	2.977480
213.450276	2676.485279	1.216148	0.015858	2.983004
214.009945	2687.481662	1.221153	0.015750	2.988507
214.486344	2698.517103	1.226158	0.015658	2.994007
214.913773	2709.526424	1.231162	0.015575	2.999477
215.340128	2720.556649	1.236167	0.015493	3.004947
215.942763	2731.563328	1.241172	0.015377	3.010421
216.124912	2742.603935	1.246177	0.015340	3.015840
216.567194	2753.596698	1.251181	0.015254	3.021263
217.020213	2764.624468	1.256186	0.015166	3.026696
217.572984	2775.626561	1.261191	0.015060	3.032121
217.972983	2786.662525	1.266195	0.014982	3.037530
218.480177	2797.672963	1.271200	0.014884	3.042933
218.975384	2808.700003	1.276205	0.014789	3.048332
219.546047	2819.712290	1.281210	0.014679	3.053725
220.004025	2830.719895	1.286214	0.014590	3.059090
220.538247	2841.747353	1.291219	0.014487	3.064466
220.840087	2852.773457	1.296224	0.014428	3.069799
221.490739	2863.774626	1.301228	0.014303	3.075160
221.771740	2874.821956	1.306233	0.014247	3.080481
222.258730	2885.801314	1.311238	0.014153	3.085790
222.793752	2896.837671	1.316243	0.014050	3.091123
223.221850	2907.832732	1.321247	0.013967	3.096413
223.641059	2918.875361	1.326252	0.013886	3.101714
223.975483	2929.909026	1.331257	0.013820	3.106990
224.386411	2940.907490	1.336262	0.013741	3.112251
224.994092	2951.917173	1.341266	0.013624	3.117536
225.322352	2962.957739	1.346271	0.013559	3.122788
225.812795	2973.960141	1.351276	0.013465	3.128035
226.301415	2984.969447	1.356280	0.013370	3.133276
226.755209	2996.000630	1.361285	0.013282	3.138514
227.106050	3007.019612	1.366290	0.013214	3.143723
227.722707	3018.023959	1.371295	0.013095	3.148953
228.024376	3029.051979	1.376299	0.013036	3.154142
228.314734	3040.100455	1.381304	0.012979	3.159331
228.492769	3051.092168	1.386309	0.012943	3.164469
229.023946	3062.096841	1.391314	0.012840	3.169653
229.343310	3073.111918	1.396318	0.012778	3.174804
229.817008	3084.145380	1.401323	0.012686	3.179976
230.250110	3095.140870	1.406328	0.012602	3.185117
230.631842	3106.185120	1.411332	0.012528	3.190265
230.969648	3117.182407	1.416337	0.012462	3.195377
231.607815	3128.188420	1.421342	0.012339	3.200524
232.193094	3139.211858	1.426347	0.012227	3.205665
232.946144	3150.232164	1.431351	0.012083	3.210818
233.095636	3161.256216	1.436356	0.012052	3.215884
233.321231	3172.288752	1.441361	0.012007	3.220956
233.618110	3183.301849	1.446366	0.011948	3.226020
234.128601	3194.290686	1.451370	0.011850	3.231094
234.481170	3205.329886	1.456375	0.011781	3.236162
234.907371	3216.353810	1.461380	0.011698	3.241224
235.173292	3227.367882	1.466384	0.011646	3.246253
235.573052	3238.388368	1.471389	0.011568	3.251294
235.807350	3249.385499	1.476394	0.011521	3.256296
236.382668	3260.412523	1.481399	0.011410	3.261347
236.665862	3271.442655	1.486403	0.011355	3.266354
237.080095	3282.444079	1.491408	0.011274	3.271357
237.360667	3293.466991	1.496413	0.011219	3.276345
237.889458	3304.462392	1.501417	0.011117	3.281345
238.274566	3315.509915	1.506422	0.011042	3.286342
238.691198	3326.515330	1.511427	0.010961	3.291317
239.180354	3337.517114	1.516432	0.010866	3.296292
239.616474	3348.550434	1.521436	0.010782	3.301266
239.795693	3359.579968	1.526441	0.010745	3.306198
240.370419	3370.572640	1.531446	0.010635	3.311157
240.659845	3381.608570	1.536451	0.010578	3.316091
241.231075	3392.600223	1.541455	0.010468	3.321034
241.547078	3403.636050	1.546460	0.010406	3.325957
241.993990	3414.631635	1.551465	0.010319	3.330871
242.299104	3425.679099	1.556469	0.010259	3.335783
242.930719	3436.670644	1.561474	0.010138	3.340703
243.189011	3447.718468	1.566479	0.010087	3.345595
243.580396	3458.712420	1.571484	0.010011	3.350472
243.706895	3469.755456	1.576488	0.009984	3.355331
244.147552	3480.743230	1.581493	0.009899	3.360197
244.367632	3491.788020	1.586498	0.009855	3.365054
244.751065	3502.774430	1.591503	0.009780	3.369898
245.108306	3513.785099	1.596507	0.009710	3.374743
245.535193	3524.821097	1.601512	0.009628	3.379600
245.832775	3535.837782	1.606517	0.009569	3.384426
246.102492	3546.856697	1.611521	0.009516	3.389243
246.453068	3557.860280	1.616526	0.009447	3.394056
246.996802	3568.874909	1.621531	0.009342	3.398890
247.384681	3579.905180	1.626536	0.009267	3.403705
247.722545	3590.908222	1.631540	0.009201	3.408495
248.038612	3601.928795	1.636545	0.009139	3.413284
248.403456	3612.940686	1.641550	0.009068	3.418068
248.831588	3623.956571	1.646555	0.008985	3.422854
249.178318	3634.998529	1.651559	0.008917	3.427635
249.534157	3645.977909	1.656564	0.008847	3.432384
250.087616	3657.010742	1.661569	0.008741	3.437172
250.502504	3668.022586	1.666573	0.008660	3.441928
251.210044	3679.015204	1.671578	0.008525	3.446704
251.541631	3690.073414	1.676583	0.008460	3.451456
251.989494	3701.062969	1.681588	0.008373	3.456187
252.226553	3712.107776	1.686592	0.008326	3.460909
252.419682	3723.104932	1.691597	0.008287	3.465600
252.664578	3734.123557	1.696602	0.008238	3.470300
253.095759	3745.136385	1.701606	0.008154	3.475012
253.443446	3756.159425	1.706611	0.008086	3.479713
253.793088	3767.183842	1.711616	0.008018	3.484408
254.021177	3778.210097	1.716621	0.007973	3.489083
254.358516	3789.204374	1.721625	0.007907	3.493751
254.716521	3800.236996	1.726630	0.007837	3.498431
255.069274	3811.218462	1.731635	0.007768	3.503083
255.619741	3822.272628	1.736640	0.007662	3.507781
255.794089	3833.262684	1.741644	0.007626	3.512404
256.162351	3844.289250	1.746649	0.007554	3.517057
256.558944	3855.298373	1.751654	0.007477	3.521701
256.683009	3866.351548	1.756658	0.007451	3.526325
257.223706	3877.320452	1.761663	0.007347	3.530956
257.533431	3888.362412	1.766668	0.007286	3.535585
257.889182	3899.357783	1.771673	0.007217	3.540193
258.087436	3910.388615	1.776677	0.007177	3.544792
258.547406	3921.381271	1.781682	0.007088	3.549399
259.028775	3932.418333	1.786687	0.006995	3.554021
259.425984	3943.443789	1.791692	0.006918	3.558622
259.730498	3954.448323	1.796696	0.006858	3.563198
260.174447	3965.466110	1.801701	0.006772	3.567789
260.424166	3976.459694	1.806706	0.006722	3.572343
260.826813	3987.491018	1.811710	0.006644	3.576923
261.112799	3998.504266	1.816715	0.006587	3.581478
261.695527	4009.517725	1.821720	0.006475	3.586058
261.797637	4020.560910	1.826725	0.006453	3.590593
262.181375	4031.547365	1.831729	0.006379	3.595129
262.520217	4042.582223	1.836734	0.006312	3.599674
263.008070	4053.594607	1.841739	0.006218	3.604221
263.308314	4064.600861	1.846744	0.006159	3.608739
263.624595	4075.629956	1.851748	0.006097	3.613262
263.985727	4086.651997	1.856753	0.006026	3.617781
264.375907	4097.660417	1.861758	0.005951	3.622293
264.595290	4108.748315	1.866762	0.005907	3.626812
265.183009	4119.680764	1.871767	0.005794	3.631302
265.579461	4130.755210	1.876772	0.005717	3.635824
265.805544	4141.772136	1.881777	0.005671	3.640299
266.029842	4152.801744	1.886781	0.005627	3.644772
266.330900	4163.785286	1.891786	0.005567	3.649230
266.662160	4174.811040	1.896791	0.005502	3.653703
267.197546	4185.817767	1.901795	0.005399	3.658184
267.473962	4196.867768	1.906800	0.005345	3.662649
267.819715	4207.851713	1.911805	0.005277	3.667090
267.856575	4218.892236	1.916810	0.005267	3.671515
268.195505	4229.872282	1.921814	0.005201	3.675943
268.582821	4240.911042	1.926819	0.005126	3.680394
269.014590	4251.921333	1.931824	0.005042	3.684832
269.267985	4262.937091	1.936829	0.004992	3.689249
269.492029	4273.957467	1.941833	0.004947	3.693659
269.860096	4284.969321	1.946838	0.004875	3.698076
270.423539	4295.969667	1.951843	0.004767	3.702502
270.759054	4307.006831	1.956847	0.004701	3.706915
271.185206	4317.983385	1.961852	0.004618	3.711307
271.401942	4329.038025	1.966857	0.004575	3.715703
271.751756	4340.035821	1.971862	0.004507	3.720086
272.056193	4351.100607	1.976866	0.004447	3.724485
272.278368	4362.040013	1.981871	0.004402	3.728820
272.712560	4373.096113	1.986876	0.004318	3.733219
273.023211	4384.106247	1.991881	0.004257	3.737581
273.415650	4395.136221	1.996885	0.004181	3.741954
273.821813	4406.128935	2.001890	0.004102	3.746309
