Wed Nov 23 18:47:16 2022

Number of Points = 2200
Depth (nm)	Load (µN)	Time (s)	Depth (V)	Load (V)
-5.784954	1.841648	0.000000	-0.004176	1.070065
0.000000	7.024017	0.005005	-0.005263	1.080054
4.404142	16.496551	0.010009	-0.006092	1.095028
6.536593	27.722472	0.015014	-0.006495	1.111008
7.972169	38.986248	0.020019	-0.006767	1.126475
9.221871	50.211159	0.025024	-0.007004	1.141593
9.907811	61.434686	0.030028	-0.007136	1.156248
10.696859	72.561871	0.035033	-0.007287	1.170646
11.118695	83.768230	0.040038	-0.007368	1.184800
11.466568	94.902210	0.045043	-0.007436	1.198665
11.952706	105.970164	0.050047	-0.007530	1.212352
12.443100	117.080139	0.055052	-0.007625	1.225938
12.991103	128.154634	0.060057	-0.007731	1.239358
18.562367	138.129286	0.065061	-0.008779	1.253495
20.242731	150.038572	0.070066	-0.009097	1.268065
22.024737	161.154809	0.075071	-0.009434	1.281603
23.114017	172.381304	0.080076	-0.009641	1.294838
24.449129	183.500734	0.085080	-0.009894	1.307918
25.633846	194.576897	0.090085	-0.010119	1.320759
26.493040	205.707355	0.095090	-0.010283	1.333405
27.219151	216.821012	0.100094	-0.010422	1.345861
28.120308	227.867465	0.105099	-0.010594	1.358199
29.117161	238.925025	0.110104	-0.010784	1.370473
30.026451	250.041408	0.115109	-0.010957	1.382667
30.688038	261.096741	0.120113	-0.011084	1.394595
31.782422	272.144824	0.125118	-0.011292	1.406577
32.603226	283.264599	0.130123	-0.011449	1.418429
33.610130	294.267867	0.135128	-0.011641	1.430132
34.564809	305.346377	0.140132	-0.011823	1.441797
35.604764	316.426831	0.145137	-0.012021	1.453401
36.376001	327.524401	0.150142	-0.012168	1.464832
36.885542	338.622386	0.155146	-0.012266	1.476081
37.842494	349.623966	0.160151	-0.012449	1.487308
38.879600	360.661724	0.165156	-0.012646	1.498515
39.900975	371.720834	0.170161	-0.012840	1.509652
40.971805	382.764178	0.175165	-0.013044	1.520710
41.626278	393.909116	0.180170	-0.013170	1.531641
42.759631	404.878912	0.185175	-0.013385	1.542491
43.831404	415.946108	0.190180	-0.013589	1.553336
44.629028	427.053687	0.195184	-0.013741	1.564051
45.458308	438.089224	0.200189	-0.013900	1.574637
45.887643	449.225048	0.205194	-0.013983	1.585111
47.044600	460.146681	0.210198	-0.014203	1.595559
47.770390	471.276542	0.215203	-0.014342	1.605987
48.793622	482.273466	0.220208	-0.014536	1.616324
49.560126	493.396841	0.225213	-0.014683	1.626626
50.244620	504.383779	0.230217	-0.014814	1.636714
51.518224	515.405993	0.235222	-0.015056	1.646958
52.464968	526.464523	0.240227	-0.015236	1.657067
53.661548	537.487444	0.245232	-0.015463	1.667161
54.204540	548.625524	0.250236	-0.015568	1.677092
55.212920	559.617793	0.255241	-0.015760	1.686981
55.840318	570.707803	0.260246	-0.015881	1.696780
56.671027	581.739236	0.265250	-0.016039	1.706533
57.608106	592.743626	0.270255	-0.016218	1.716240
58.595877	603.785580	0.275260	-0.016406	1.725938
59.252848	614.889241	0.280265	-0.016532	1.735536
60.235637	625.869315	0.285269	-0.016719	1.745073
60.940558	636.964517	0.290274	-0.016854	1.754572
61.919448	647.958552	0.295279	-0.017040	1.764016
63.089120	658.952209	0.300283	-0.017263	1.773464
63.919479	670.091026	0.305288	-0.017421	1.782883
64.795652	681.087282	0.310293	-0.017588	1.792148
65.622239	692.158509	0.315298	-0.017746	1.801412
66.339022	703.189558	0.320302	-0.017883	1.810565
67.257445	714.216296	0.325307	-0.018058	1.819725
68.010955	725.267173	0.330312	-0.018202	1.828812
68.774426	736.325348	0.335317	-0.018348	1.837862
69.784411	747.298039	0.340321	-0.018541	1.846867
70.589477	758.405353	0.345326	-0.018695	1.855879
71.419139	769.398040	0.350331	-0.018853	1.864763
72.094906	780.491349	0.355335	-0.018982	1.873641
72.834750	791.476727	0.360340	-0.019124	1.882411
73.853500	802.530440	0.365345	-0.019318	1.891267
74.519779	813.574371	0.370350	-0.019446	1.899980
75.288278	824.589644	0.375354	-0.019593	1.908658
76.080852	835.648630	0.380359	-0.019744	1.917336
77.111059	846.614265	0.385364	-0.019940	1.925967
78.093103	857.696298	0.390369	-0.020127	1.934634
78.805936	868.760005	0.395373	-0.020264	1.943178
79.314008	879.794629	0.400378	-0.020362	1.951609
80.390517	890.764727	0.405383	-0.020566	1.960102
80.959218	901.860864	0.410387	-0.020676	1.968522
81.734152	912.885256	0.415392	-0.020824	1.976904
82.404726	923.930378	0.420397	-0.020953	1.985240
82.913561	934.972182	0.425402	-0.021051	1.993498
83.513634	946.009379	0.430406	-0.021166	2.001740
84.192417	957.009684	0.435411	-0.021296	2.009942
84.938814	968.052874	0.440416	-0.021439	2.018158
85.824793	979.034397	0.445421	-0.021608	2.026330
86.565841	990.112427	0.450425	-0.021750	2.034503
87.218439	1001.146629	0.455430	-0.021875	2.042590
87.948396	1012.157619	0.460435	-0.022015	2.050646
88.921014	1023.196161	0.465439	-0.022200	2.058750
89.629905	1034.233693	0.470444	-0.022336	2.066757
90.377012	1045.280028	0.475449	-0.022478	2.074748
90.888452	1056.318306	0.480454	-0.022577	2.082646
91.533894	1067.357346	0.485458	-0.022701	2.090546
92.003125	1078.397429	0.490463	-0.022792	2.098375
92.506851	1089.410870	0.495468	-0.022889	2.106165
93.149319	1100.428309	0.500472	-0.023012	2.113961
93.889762	1111.442568	0.505477	-0.023154	2.121749
94.350768	1122.509594	0.510482	-0.023243	2.129479
95.051666	1133.516011	0.515487	-0.023377	2.137196
95.861926	1144.519106	0.520491	-0.023532	2.144907
96.842221	1155.533000	0.525496	-0.023719	2.152637
97.364046	1166.620705	0.530501	-0.023820	2.160284
98.032993	1177.598336	0.535506	-0.023948	2.167862
98.748167	1188.670962	0.540510	-0.024085	2.175489
99.581001	1199.668119	0.545515	-0.024244	2.183065
100.024607	1210.731162	0.550520	-0.024330	2.190570
100.692236	1221.752043	0.555524	-0.024458	2.198072
101.198997	1232.760334	0.560529	-0.024556	2.205504
102.033931	1243.781180	0.565534	-0.024715	2.212992
102.467036	1254.853027	0.570539	-0.024799	2.220399
103.029722	1265.847802	0.575543	-0.024907	2.227759
103.704081	1276.881051	0.580548	-0.025037	2.235144
104.347213	1287.897378	0.585553	-0.025160	2.242487
104.704286	1298.961834	0.590558	-0.025230	2.249775
105.510804	1309.954200	0.595562	-0.025384	2.257090
106.087270	1320.977472	0.600567	-0.025495	2.264351
106.693121	1332.023650	0.605572	-0.025611	2.271610
107.340359	1343.012397	0.610576	-0.025735	2.278817
108.083041	1354.033456	0.615581	-0.025877	2.286043
108.715425	1365.088013	0.620586	-0.025999	2.293243
109.213490	1376.116369	0.625591	-0.026095	2.300376
109.685729	1387.152192	0.630595	-0.026186	2.307485
110.203911	1398.193483	0.635600	-0.026286	2.314586
110.536120	1409.197337	0.640605	-0.026351	2.321602
111.083114	1420.233532	0.645610	-0.026457	2.328662
111.667001	1431.228088	0.650614	-0.026569	2.335682
112.473780	1442.229537	0.655619	-0.026723	2.342732
113.016345	1453.291982	0.660624	-0.026828	2.349743
113.543193	1464.327168	0.665628	-0.026929	2.356713
114.030536	1475.353700	0.670633	-0.027023	2.363649
114.678983	1486.341984	0.675638	-0.027148	2.370574
115.291496	1497.383393	0.680643	-0.027265	2.377504
115.980292	1508.409683	0.685647	-0.027397	2.384419
116.457449	1519.442335	0.690652	-0.027490	2.391276
116.988499	1530.455121	0.695657	-0.027592	2.398111
117.392413	1541.513731	0.700661	-0.027671	2.404930
117.889242	1552.513362	0.705666	-0.027766	2.411711
118.326350	1563.545998	0.710671	-0.027851	2.418482
118.865034	1574.546119	0.715676	-0.027955	2.425234
119.540156	1585.542351	0.720680	-0.028084	2.431991
120.134011	1596.607724	0.725685	-0.028199	2.438755
120.685374	1607.612940	0.730690	-0.028305	2.445456
121.189705	1618.680241	0.735695	-0.028402	2.452167
121.738270	1629.658965	0.740699	-0.028508	2.458814
122.226745	1640.704130	0.745704	-0.028602	2.465472
122.605757	1651.731147	0.750709	-0.028676	2.472079
123.246291	1662.726071	0.755713	-0.028799	2.478700
123.573656	1673.775532	0.760718	-0.028863	2.485275
124.377452	1684.781223	0.765723	-0.029017	2.491898
124.723183	1695.831245	0.770728	-0.029084	2.498442
125.146627	1706.826450	0.775732	-0.029166	2.504952
125.581907	1717.855610	0.780737	-0.029251	2.511466
126.002416	1728.908614	0.785742	-0.029332	2.517975
126.529691	1739.875985	0.790747	-0.029434	2.524437
127.263622	1750.909371	0.795751	-0.029575	2.530959
127.751610	1761.919854	0.800756	-0.029669	2.537405
128.339256	1772.971384	0.805761	-0.029782	2.543877
128.844574	1783.979918	0.810765	-0.029879	2.550292
129.251567	1795.030834	0.815770	-0.029959	2.556698
129.565587	1806.056814	0.820775	-0.030020	2.563055
130.185451	1817.033622	0.825780	-0.030139	2.569425
130.881126	1828.117262	0.830784	-0.030272	2.575853
131.089368	1839.129772	0.835789	-0.030314	2.582137
131.460819	1850.104331	0.840794	-0.030387	2.588413
132.114234	1861.140006	0.845799	-0.030512	2.594759
132.455574	1872.168062	0.850803	-0.030579	2.601029
133.126170	1883.176569	0.855808	-0.030707	2.607331
133.540079	1894.205976	0.860813	-0.030788	2.613585
134.003942	1905.216768	0.865817	-0.030878	2.619821
134.235078	1916.255816	0.870822	-0.030924	2.626017
134.685642	1927.286977	0.875827	-0.031011	2.632233
135.198599	1938.269185	0.880832	-0.031110	2.638418
135.635999	1949.327022	0.885836	-0.031195	2.644617
136.026611	1960.330348	0.890841	-0.031271	2.650763
136.762176	1971.336933	0.895846	-0.031411	2.656957
137.170720	1982.384145	0.900850	-0.031491	2.663101
137.602228	1993.385737	0.905855	-0.031575	2.669210
137.919595	2004.426422	0.910860	-0.031637	2.675307
138.402497	2015.439740	0.915865	-0.031730	2.681403
138.711776	2026.463093	0.920869	-0.031791	2.687461
139.410858	2037.447214	0.925874	-0.031925	2.693551
139.932299	2048.471685	0.930879	-0.032025	2.699618
140.456639	2059.476239	0.935884	-0.032126	2.705662
140.846354	2070.528816	0.940888	-0.032202	2.711694
141.361558	2081.532186	0.945893	-0.032302	2.717708
141.737761	2092.550230	0.950898	-0.032375	2.723693
142.235463	2103.577541	0.955902	-0.032471	2.729690
142.717540	2114.584995	0.960907	-0.032564	2.735661
142.899474	2125.646288	0.965912	-0.032601	2.741597
143.300957	2136.626605	0.970917	-0.032679	2.747513
143.957283	2147.632436	0.975921	-0.032805	2.753473
144.338343	2158.664210	0.980926	-0.032879	2.759387
144.760011	2169.705081	0.985931	-0.032961	2.765301
145.140475	2180.724401	0.990936	-0.033035	2.771183
145.549003	2191.734544	0.995940	-0.033115	2.777053
145.809313	2202.760615	1.000945	-0.033166	2.782894
146.282241	2213.757065	1.005950	-0.033258	2.788742
146.899029	2224.770022	1.010954	-0.033376	2.794610
147.555421	2235.795777	1.015959	-0.033502	2.800479
148.095597	2246.816840	1.020964	-0.033606	2.806313
148.470138	2257.893084	1.025969	-0.033679	2.812138
148.663781	2268.876719	1.030973	-0.033718	2.817873
149.001684	2279.899195	1.035978	-0.033784	2.823639
149.289871	2290.898972	1.040983	-0.033841	2.829375
149.779178	2301.934930	1.045988	-0.033936	2.835149
150.322346	2312.925167	1.050992	-0.034040	2.840896
150.675278	2323.995198	1.055997	-0.034109	2.846642
150.892203	2335.007511	1.061002	-0.034153	2.852326
151.228357	2345.996172	1.066006	-0.034219	2.858005
151.925637	2356.985871	1.071011	-0.034352	2.863730
152.302093	2368.068231	1.076016	-0.034426	2.869440
152.534769	2379.073590	1.081021	-0.034472	2.875077
153.029844	2390.092290	1.086025	-0.034568	2.880751
153.421652	2401.085434	1.091030	-0.034644	2.886384
153.919440	2412.145889	1.096035	-0.034740	2.892057
154.430784	2423.119285	1.101039	-0.034839	2.897676
154.830168	2434.143234	1.106044	-0.034916	2.903293
155.112663	2445.191778	1.111049	-0.034972	2.908893
155.634512	2456.192637	1.116054	-0.035073	2.914495
156.001500	2467.209472	1.121058	-0.035144	2.920071
156.344863	2478.241865	1.126063	-0.035211	2.925640
156.662146	2489.257911	1.131068	-0.035274	2.931186
157.053984	2500.267504	1.136073	-0.035350	2.936730
157.398006	2511.272656	1.141077	-0.035417	2.942254
157.984095	2522.292805	1.146082	-0.035530	2.947811
158.334773	2533.327571	1.151087	-0.035598	2.953329
158.685324	2544.349919	1.156091	-0.035667	2.958831
159.162129	2555.363213	1.161096	-0.035759	2.964337
159.666578	2566.370774	1.166101	-0.035857	2.969834
160.196468	2577.375730	1.171106	-0.035959	2.975323
160.441488	2588.443639	1.176110	-0.036007	2.980791
160.929864	2599.405833	1.181115	-0.036102	2.986232
161.515410	2610.453900	1.186120	-0.036214	2.991720
161.680240	2621.483036	1.191125	-0.036248	2.997127
162.081356	2632.485617	1.196129	-0.036326	3.002545
162.423384	2643.514705	1.201134	-0.036393	3.007958
162.890392	2654.525257	1.206139	-0.036483	3.013371
163.188691	2665.535758	1.211143	-0.036542	3.018749
163.449690	2676.570939	1.216148	-0.036594	3.024123
163.875796	2687.588294	1.221153	-0.036676	3.029504
164.272259	2698.590481	1.226158	-0.036753	3.034863
164.760662	2709.611081	1.231162	-0.036848	3.040235
165.153051	2720.637414	1.236167	-0.036924	3.045586
165.516859	2731.670582	1.241172	-0.036995	3.050927
166.035774	2742.649218	1.246177	-0.037095	3.056254
166.430086	2753.675491	1.251181	-0.037172	3.061577
166.823772	2764.713712	1.256186	-0.037249	3.066896
167.146591	2775.710517	1.261191	-0.037312	3.072177
167.469709	2786.756754	1.266195	-0.037375	3.077471
167.846684	2797.741855	1.271200	-0.037449	3.082735
168.320548	2808.777500	1.276205	-0.037540	3.088028
168.567904	2819.789212	1.281210	-0.037590	3.093268
169.042772	2830.832747	1.286214	-0.037681	3.098546
169.401553	2841.803887	1.291219	-0.037751	3.103765
169.984127	2852.838154	1.296224	-0.037863	3.109035
170.295226	2863.871280	1.301228	-0.037925	3.114259
170.805660	2874.883917	1.306233	-0.038023	3.119491
171.032692	2885.900784	1.311238	-0.038068	3.124678
171.391599	2896.944272	1.316243	-0.038138	3.129886
171.515589	2907.932795	1.321247	-0.038164	3.135028
172.037948	2918.971649	1.326252	-0.038265	3.140240
172.391207	2929.951222	1.331257	-0.038334	3.145391
172.608209	2941.013289	1.336262	-0.038378	3.150555
172.759711	2952.006334	1.341266	-0.038409	3.155668
173.198560	2963.020573	1.346271	-0.038494	3.160823
173.642587	2974.030768	1.351276	-0.038580	3.165967
174.089065	2985.055236	1.356280	-0.038666	3.171110
174.381492	2996.073024	1.361285	-0.038724	3.176221
174.866771	3007.067708	1.366290	-0.038818	3.181338
175.255806	3018.103814	1.371295	-0.038894	3.186454
175.780577	3029.116598	1.376299	-0.038995	3.191568
176.032687	3040.150865	1.381304	-0.039045	3.196648
176.424888	3051.161660	1.386309	-0.039121	3.201727
176.614107	3062.197719	1.391314	-0.039159	3.206783
177.083169	3073.198589	1.396318	-0.039250	3.211852
177.137174	3084.216948	1.401323	-0.039263	3.216867
177.550250	3095.228083	1.406328	-0.039343	3.221917
177.867668	3106.240369	1.411332	-0.039405	3.226947
178.295416	3117.254264	1.416337	-0.039488	3.231984
178.609072	3128.280570	1.421342	-0.039550	3.237004
179.083270	3139.289930	1.426347	-0.039642	3.242030
179.239369	3150.336064	1.431351	-0.039674	3.247023
179.523287	3161.339739	1.436356	-0.039730	3.252006
179.738144	3172.343486	1.441361	-0.039773	3.256972
180.151811	3183.349831	1.446366	-0.039853	3.261957
180.484298	3194.398760	1.451370	-0.039918	3.266943
181.058597	3205.379695	1.456375	-0.040029	3.271922
181.505304	3216.408072	1.461380	-0.040115	3.276898
181.786349	3227.432180	1.466384	-0.040171	3.281844
182.028223	3238.470314	1.471389	-0.040219	3.286783
182.449263	3249.465136	1.476394	-0.040301	3.291718
182.736045	3260.465742	1.481399	-0.040357	3.296632
183.215850	3271.501597	1.486403	-0.040450	3.301578
183.366568	3282.527744	1.491408	-0.040481	3.306471
183.762722	3293.526961	1.496413	-0.040558	3.311375
184.093830	3304.537206	1.501417	-0.040623	3.316269
184.646697	3315.546009	1.506422	-0.040729	3.321182
185.067108	3326.593474	1.511427	-0.040811	3.326089
185.356519	3337.602102	1.516432	-0.040868	3.330955
185.611284	3348.613357	1.521436	-0.040918	3.335810
186.058580	3359.638771	1.526441	-0.041005	3.340689
186.321625	3370.660394	1.531446	-0.041057	3.345536
186.722039	3381.662479	1.536451	-0.041135	3.350384
187.090268	3392.684920	1.541455	-0.041207	3.355230
187.319480	3403.705221	1.546460	-0.041253	3.360051
187.519135	3414.733320	1.551465	-0.041293	3.364865
187.923358	3425.735218	1.556469	-0.041371	3.369685
188.376348	3436.720137	1.561474	-0.041459	3.374497
188.924046	3447.755384	1.566479	-0.041565	3.379335
189.054722	3458.799024	1.571484	-0.041592	3.384119
189.416835	3469.797461	1.576488	-0.041663	3.388905
189.703418	3480.811087	1.581493	-0.041719	3.393682
190.188097	3491.827484	1.586498	-0.041813	3.398477
190.524236	3502.837201	1.591503	-0.041878	3.403244
190.826432	3513.878672	1.596507	-0.041938	3.408014
191.220296	3524.870323	1.601512	-0.042015	3.412767
191.438798	3535.909507	1.606517	-0.042058	3.417513
191.683612	3546.906468	1.611521	-0.042107	3.422237
192.066862	3557.923042	1.616526	-0.042182	3.426980
192.352256	3568.961022	1.621531	-0.042238	3.431713
192.774406	3579.952494	1.626536	-0.042320	3.436436
193.028128	3590.956668	1.631540	-0.042370	3.441138
193.420888	3601.996754	1.636545	-0.042447	3.445865
193.741867	3612.999097	1.641550	-0.042510	3.450561
194.108143	3624.013878	1.646555	-0.042581	3.455261
194.473159	3635.038434	1.651559	-0.042652	3.459959
195.171466	3646.057950	1.656564	-0.042786	3.464686
195.350356	3657.070923	1.661569	-0.042822	3.469345
195.557008	3668.106121	1.666573	-0.042864	3.474009
195.846422	3679.112125	1.671578	-0.042921	3.478665
196.387025	3690.115874	1.676583	-0.043025	3.483342
196.607539	3701.146255	1.681588	-0.043069	3.487987
196.885793	3712.138454	1.686592	-0.043124	3.492617
197.153618	3723.172273	1.691597	-0.043177	3.497256
197.599504	3734.182255	1.696602	-0.043263	3.501900
197.977206	3745.207066	1.701606	-0.043337	3.506536
198.160908	3756.218432	1.706611	-0.043374	3.511138
198.445491	3767.240347	1.711616	-0.043430	3.515750
198.915004	3778.234392	1.716621	-0.043521	3.520365
199.089604	3789.287740	1.721625	-0.043557	3.524965
199.499960	3800.291154	1.726630	-0.043636	3.529565
199.697771	3811.308548	1.731635	-0.043676	3.534141
200.093303	3822.316541	1.736640	-0.043753	3.538729
200.265699	3833.345561	1.741644	-0.043788	3.543295
200.533859	3844.341922	1.746649	-0.043841	3.547852
200.822400	3855.339587	1.751654	-0.043898	3.552406
201.226499	3866.396638	1.756658	-0.043977	3.556992
201.329673	3877.399087	1.761663	-0.043999	3.561515
201.728612	3888.405678	1.766668	-0.044076	3.566068
202.073654	3899.416707	1.771673	-0.044144	3.570610
202.391398	3910.447852	1.776677	-0.044206	3.575151
202.610889	3921.465997	1.781682	-0.044250	3.579671
202.797294	3932.477978	1.786687	-0.044288	3.584179
203.205390	3943.480140	1.791692	-0.044367	3.588701
203.568872	3954.504602	1.796696	-0.044438	3.593222
203.893332	3965.548284	1.801701	-0.044502	3.597740
204.331978	3976.509510	1.806706	-0.044587	3.602232
204.612571	3987.560757	1.811710	-0.044642	3.606737
204.872425	3998.547389	1.816715	-0.044694	3.611209
205.121773	4009.596289	1.821720	-0.044743	3.615698
205.499729	4020.585591	1.826725	-0.044817	3.620172
205.564038	4031.626851	1.831729	-0.044831	3.624628
206.060924	4042.622536	1.836734	-0.044927	3.629106
206.229491	4053.637326	1.841739	-0.044962	3.633551
206.572096	4064.682110	1.846744	-0.045029	3.638021
206.897180	4075.666710	1.851748	-0.045093	3.642460
207.382771	4086.691406	1.856753	-0.045186	3.646926
207.413273	4097.740344	1.861758	-0.045195	3.651348
207.951651	4108.774905	1.866762	-0.045299	3.655812
208.118312	4119.796455	1.871767	-0.045333	3.660227
208.424786	4130.797960	1.876772	-0.045393	3.664643
208.587376	4141.830266	1.881777	-0.045426	3.669051
208.961662	4152.823774	1.886781	-0.045499	3.673460
209.063623	4163.878350	1.891786	-0.045521	3.677860
209.383655	4174.869666	1.896791	-0.045584	3.682252
209.660684	4185.883230	1.901795	-0.045638	3.686643
209.996960	4196.878165	1.906800	-0.045704	3.691028
210.172046	4207.917323	1.911805	-0.045740	3.695408
210.503567	4218.929888	1.916810	-0.045805	3.699789
210.851944	4229.934782	1.921814	-0.045873	3.704163
211.382838	4240.946936	1.926819	-0.045975	3.708553
211.653511	4251.989943	1.931824	-0.046029	3.712923
211.977048	4263.004694	1.936829	-0.046092	3.717283
212.097490	4274.003123	1.941833	-0.046117	3.721610
212.508069	4285.015310	1.946838	-0.046197	3.725967
212.562883	4296.040683	1.951843	-0.046210	3.730288
212.962825	4307.036357	1.956847	-0.046288	3.734628
213.310035	4318.059534	1.961852	-0.046356	3.738967
213.602783	4329.080183	1.966857	-0.046413	3.743295
