Wed Nov 23 19:06:18 2022

Number of Points = 2200
Depth (nm)	Load (µN)	Time (s)	Depth (V)	Load (V)
-1.326033	1.478199	0.000000	0.017263	1.009874
0.000000	7.703267	0.005005	0.017012	1.019616
1.387318	16.861947	0.010009	0.016750	1.033485
2.545156	27.548991	0.015014	0.016530	1.049196
3.839607	38.568347	0.020019	0.016284	1.065204
4.736238	49.757869	0.025024	0.016113	1.081006
5.748448	60.896361	0.030028	0.015920	1.096567
6.399069	72.093830	0.035033	0.015796	1.111812
7.039900	83.278451	0.040038	0.015673	1.126829
7.580918	94.390492	0.045043	0.015568	1.141507
8.215236	105.501891	0.050047	0.015447	1.156041
8.712235	116.642809	0.055052	0.015351	1.170368
9.457243	127.729333	0.060057	0.015208	1.184566
9.861493	138.873388	0.065061	0.015129	1.198513
10.356094	149.984626	0.070066	0.015034	1.212300
10.759594	161.121334	0.075071	0.014955	1.225922
14.506156	171.168889	0.080076	0.014250	1.239552
21.445781	182.142375	0.085080	0.012945	1.255487
22.452771	194.099967	0.090085	0.012753	1.269848
24.315579	205.150382	0.095090	0.012401	1.283366
25.491241	216.401775	0.100094	0.012177	1.296685
26.411456	227.612592	0.105099	0.012002	1.309718
27.597110	238.596158	0.110104	0.011777	1.322477
28.616841	249.704664	0.115109	0.011583	1.335184
29.993354	260.722468	0.120113	0.011322	1.347814
30.868169	271.880872	0.125118	0.011155	1.360280
31.831948	282.958758	0.130123	0.010971	1.372581
33.571678	293.822817	0.135128	0.010642	1.384844
35.841652	304.910441	0.140132	0.010213	1.397435
36.764614	316.146664	0.145137	0.010037	1.409559
38.222570	327.150212	0.150142	0.009761	1.421538
39.534829	338.248547	0.155146	0.009512	1.433460
40.667060	349.354803	0.160151	0.009297	1.445225
41.853584	360.408206	0.165156	0.009072	1.456860
43.154099	371.446883	0.170161	0.008825	1.468429
44.410044	382.506672	0.175165	0.008586	1.479911
45.542551	393.649360	0.180170	0.008371	1.491342
46.486147	404.682932	0.185175	0.008191	1.502513
47.787746	415.722818	0.190180	0.007944	1.513732
48.405618	426.874965	0.195184	0.007826	1.524739
49.631094	437.828363	0.200189	0.007593	1.535685
50.842137	448.923841	0.205194	0.007363	1.546683
51.516719	460.058399	0.210198	0.007234	1.557458
52.417253	471.050283	0.215203	0.007062	1.568101
53.246906	482.148275	0.220208	0.006904	1.578747
54.078739	493.155314	0.225213	0.006745	1.589237
55.151207	504.235063	0.230217	0.006541	1.599805
55.616315	515.314241	0.235222	0.006451	1.610104
56.572679	526.334844	0.240227	0.006269	1.620443
57.732253	537.322430	0.245232	0.006048	1.630751
58.961161	548.379416	0.250236	0.005815	1.641078
59.739093	559.481294	0.255241	0.005666	1.651238
60.755245	570.518596	0.260246	0.005473	1.661352
61.500008	581.563894	0.265250	0.005330	1.671327
62.546425	592.606075	0.270255	0.005131	1.681334
63.202459	603.678738	0.275260	0.005005	1.691186
64.331471	614.687069	0.280265	0.004791	1.701071
64.815459	625.806086	0.285269	0.004697	1.710797
65.834707	636.765289	0.290274	0.004503	1.720493
66.950614	647.820354	0.295279	0.004291	1.730244
67.805363	658.883787	0.300283	0.004128	1.739870
68.779906	669.890104	0.305288	0.003942	1.749429
69.788314	680.962578	0.310293	0.003751	1.759002
70.513690	692.029296	0.315298	0.003612	1.768434
71.406803	703.079296	0.320302	0.003441	1.777851
71.941063	714.114646	0.325307	0.003338	1.787102
72.700060	725.181935	0.330312	0.003193	1.796396
73.231544	736.212756	0.335317	0.003091	1.805548
74.310635	747.156719	0.340321	0.002886	1.814738
75.694507	758.176647	0.345326	0.002623	1.824028
76.626467	769.292371	0.350331	0.002446	1.833221
77.533276	780.328923	0.355335	0.002273	1.842297
78.060283	791.443057	0.360340	0.002171	1.851284
78.669759	802.448882	0.365345	0.002054	1.860165
79.497140	813.438695	0.370350	0.001896	1.869051
80.222090	824.488310	0.375354	0.001757	1.877913
80.845532	835.566617	0.380359	0.001637	1.886728
81.435887	846.593073	0.385364	0.001524	1.895452
82.520994	857.555921	0.390369	0.001318	1.904220
83.247690	868.629782	0.395373	0.001179	1.912937
84.024380	879.693313	0.400378	0.001030	1.921620
84.741916	890.705235	0.405383	0.000893	1.930208
85.318317	901.795068	0.410387	0.000782	1.938780
85.748244	912.795377	0.415392	0.000698	1.947208
86.772335	923.778404	0.420397	0.000504	1.955741
87.730494	934.810806	0.425402	0.000321	1.964256
88.364696	945.898522	0.430406	0.000199	1.972692
88.981720	956.932976	0.435411	0.000081	1.981048
89.632470	967.951049	0.440416	-0.000044	1.989365
90.250729	978.987030	0.445421	-0.000163	1.997652
91.131916	989.997956	0.450425	-0.000331	2.005952
91.878589	1001.048414	0.455430	-0.000474	2.014213
92.558724	1012.083086	0.460435	-0.000604	2.022412
93.192014	1023.115909	0.465439	-0.000726	2.030565
94.150325	1034.144177	0.470444	-0.000908	2.038761
94.733834	1045.193629	0.475449	-0.001020	2.046848
95.331133	1056.239759	0.480454	-0.001135	2.054903
95.923306	1067.246873	0.485458	-0.001249	2.062898
96.788932	1078.271498	0.490463	-0.001414	2.070940
97.380430	1089.314993	0.495468	-0.001528	2.078898
98.180669	1100.327375	0.500472	-0.001681	2.086854
98.607538	1111.430961	0.505477	-0.001764	2.094754
99.104327	1122.394310	0.510482	-0.001860	2.102542
99.892963	1133.405109	0.515487	-0.002010	2.110404
100.457624	1144.479498	0.520491	-0.002119	2.118228
101.332357	1155.451162	0.525496	-0.002286	2.126024
102.034784	1166.542552	0.530501	-0.002420	2.133834
102.526221	1177.552361	0.535506	-0.002515	2.141510
103.399760	1188.532203	0.540510	-0.002682	2.149226
104.194647	1199.610725	0.545515	-0.002834	2.156963
104.524602	1210.677283	0.550520	-0.002899	2.164558
105.232334	1221.642376	0.555524	-0.003034	2.172144
105.901717	1232.705237	0.560529	-0.003162	2.179760
106.493019	1243.729703	0.565534	-0.003276	2.187306
107.171613	1254.745179	0.570539	-0.003406	2.194839
107.584590	1265.789720	0.575543	-0.003486	2.202306
108.247242	1276.808836	0.580548	-0.003613	2.209787
108.999353	1287.802165	0.585553	-0.003757	2.217245
109.649103	1298.849555	0.590558	-0.003882	2.224690
110.575855	1309.853902	0.595562	-0.004059	2.232144
111.102872	1320.923639	0.600567	-0.004160	2.239527
111.704561	1331.932179	0.605572	-0.004276	2.246862
112.328374	1342.980625	0.610576	-0.004396	2.254204
112.717031	1354.017417	0.615581	-0.004471	2.261463
113.613257	1364.962045	0.620586	-0.004642	2.268749
114.380242	1376.046115	0.625591	-0.004789	2.276074
115.028597	1387.056717	0.630595	-0.004913	2.283301
115.338806	1398.121598	0.635600	-0.004974	2.290469
115.871277	1409.125816	0.640605	-0.005077	2.297622
116.602843	1420.134440	0.645610	-0.005217	2.304798
117.152277	1431.168620	0.650614	-0.005323	2.311930
117.742835	1442.193512	0.655619	-0.005436	2.319041
118.517331	1453.204968	0.660624	-0.005584	2.326162
119.156670	1464.251863	0.665628	-0.005707	2.333254
119.858731	1475.256091	0.670633	-0.005841	2.340310
120.482154	1486.284766	0.675638	-0.005961	2.347344
121.157417	1497.314832	0.680643	-0.006090	2.354369
121.579688	1508.366151	0.685647	-0.006172	2.361334
122.249417	1519.357392	0.690652	-0.006301	2.368291
122.844934	1530.386811	0.695657	-0.006415	2.375236
123.630163	1541.416000	0.700661	-0.006565	2.382199
124.125286	1552.442669	0.705666	-0.006661	2.389082
124.664012	1563.472254	0.710671	-0.006765	2.395955
125.139310	1574.500006	0.715676	-0.006857	2.402794
125.887184	1585.499513	0.720680	-0.007000	2.409651
126.419664	1596.554448	0.725685	-0.007102	2.416479
126.816053	1607.572955	0.730690	-0.007180	2.423238
127.647132	1618.532761	0.735695	-0.007338	2.430029
128.045443	1629.646329	0.740699	-0.007416	2.436808
128.719158	1640.611074	0.745704	-0.007545	2.443533
129.330361	1651.652514	0.750709	-0.007662	2.450273
129.912833	1662.678196	0.755713	-0.007774	2.456980
130.331721	1673.727472	0.760718	-0.007856	2.463650
131.008749	1684.712851	0.765723	-0.007985	2.470313
131.379806	1695.759312	0.770728	-0.008058	2.476936
132.060929	1706.764245	0.775732	-0.008188	2.483576
132.961123	1717.747692	0.780737	-0.008360	2.490228
133.505543	1728.838963	0.785742	-0.008465	2.496857
134.192217	1739.823457	0.790747	-0.008596	2.503433
134.672324	1750.864000	0.795751	-0.008689	2.509985
135.090109	1761.884667	0.800756	-0.008770	2.516496
135.513586	1772.941500	0.805761	-0.008852	2.523012
135.939381	1783.930139	0.810765	-0.008935	2.529473
136.522735	1794.947536	0.815770	-0.009047	2.535962
137.102894	1805.969587	0.820775	-0.009159	2.542438
137.680685	1816.988774	0.825780	-0.009270	2.548894
138.316342	1828.010714	0.830784	-0.009392	2.555346
138.614109	1839.077050	0.835789	-0.009451	2.561745
138.986683	1850.069769	0.840794	-0.009523	2.568100
139.515254	1861.128834	0.845799	-0.009625	2.574505
139.856120	1872.136693	0.850803	-0.009692	2.580830
140.304236	1883.129334	0.855808	-0.009779	2.587151
140.696166	1894.150668	0.860813	-0.009855	2.593463
141.099371	1905.197439	0.865817	-0.009933	2.599775
141.447090	1916.191749	0.870822	-0.010001	2.606033
141.840392	1927.237302	0.875827	-0.010078	2.612312
142.398483	1938.229975	0.880832	-0.010185	2.618576
142.862560	1949.235334	0.885836	-0.010275	2.624815
143.346308	1960.287558	0.890841	-0.010369	2.631069
143.673478	1971.308860	0.895846	-0.010433	2.637263
144.215476	1982.319032	0.900850	-0.010537	2.643474
144.764688	1993.339711	0.905855	-0.010643	2.649677
145.306836	2004.366581	0.910860	-0.010747	2.655868
145.562780	2015.420157	0.915865	-0.010798	2.662009
146.071009	2026.375211	0.920869	-0.010896	2.668126
146.621207	2037.433864	0.925874	-0.011002	2.674292
147.151677	2048.395477	0.930879	-0.011104	2.680388
147.666963	2059.459616	0.935884	-0.011204	2.686523
148.428593	2070.430534	0.940888	-0.011350	2.692636
148.902540	2081.497024	0.945893	-0.011441	2.698737
149.245624	2092.503794	0.950898	-0.011508	2.704769
149.884348	2103.521404	0.955902	-0.011631	2.710844
150.312675	2114.530206	0.960907	-0.011714	2.716865
150.719213	2125.589976	0.965912	-0.011793	2.722896
151.052659	2136.582154	0.970917	-0.011858	2.728865
151.698359	2147.593281	0.975921	-0.011982	2.734884
152.223524	2158.617731	0.980926	-0.012083	2.740876
152.673025	2169.651525	0.985931	-0.012170	2.746847
153.229922	2180.679758	0.990936	-0.012278	2.752820
153.611038	2191.678428	0.995940	-0.012352	2.758735
153.979183	2202.699945	1.000945	-0.012424	2.764647
154.516770	2213.728545	1.005950	-0.012527	2.770578
155.040622	2224.718931	1.010954	-0.012628	2.776474
155.752328	2235.749971	1.015959	-0.012765	2.782410
156.099156	2246.791537	1.020964	-0.012832	2.788278
156.425944	2257.809486	1.025969	-0.012897	2.794118
157.028231	2268.809296	1.030973	-0.013012	2.799982
157.413908	2279.853042	1.035978	-0.013087	2.805821
157.947718	2290.867076	1.040983	-0.013190	2.811656
158.365429	2301.892671	1.045988	-0.013271	2.817466
158.677536	2312.890701	1.050992	-0.013333	2.823232
159.240539	2323.911611	1.055997	-0.013441	2.829039
159.633733	2334.937763	1.061002	-0.013518	2.834810
160.133218	2345.963073	1.066006	-0.013614	2.840585
160.602385	2356.972901	1.071011	-0.013705	2.846335
161.091421	2368.021908	1.076016	-0.013799	2.852097
161.440300	2378.986110	1.081021	-0.013867	2.857782
161.969165	2390.039100	1.086025	-0.013969	2.863529
162.164437	2401.083759	1.091030	-0.014009	2.869207
162.857448	2412.039135	1.096035	-0.014141	2.874907
163.123821	2423.114390	1.101039	-0.014194	2.880590
163.719001	2434.121375	1.106044	-0.014309	2.886278
164.101284	2445.151996	1.111049	-0.014383	2.891933
164.306284	2456.172563	1.116054	-0.014424	2.897545
164.572494	2467.165087	1.121058	-0.014477	2.903141
164.953394	2478.184341	1.126063	-0.014551	2.908758
165.382097	2489.198944	1.131068	-0.014634	2.914368
165.762402	2500.240717	1.136073	-0.014708	2.919974
166.322329	2511.233182	1.141077	-0.014816	2.925572
166.756854	2522.268073	1.146082	-0.014900	2.931161
167.437197	2533.257852	1.151087	-0.015031	2.936754
167.962622	2544.277615	1.156091	-0.015132	2.942328
168.607074	2555.298426	1.161096	-0.015256	2.947909
169.012376	2566.354937	1.166101	-0.015335	2.953462
169.284104	2577.361648	1.171106	-0.015388	2.958959
169.719699	2588.388763	1.176110	-0.015473	2.964480
169.920300	2599.418843	1.181115	-0.015513	2.969958
170.245479	2610.420440	1.186120	-0.015577	2.975430
170.651659	2621.427084	1.191125	-0.015656	2.980906
171.346777	2632.425766	1.196129	-0.015789	2.986411
171.754394	2643.460825	1.201134	-0.015868	2.991881
172.164320	2654.485834	1.206139	-0.015948	2.997337
172.716063	2665.479119	1.211143	-0.016054	3.002787
173.027786	2676.561319	1.216148	-0.016115	3.008236
173.290288	2687.531070	1.221153	-0.016167	3.013613
173.813488	2698.562761	1.226158	-0.016268	3.019049
174.318809	2709.559062	1.231162	-0.016366	3.024454
174.594478	2720.628247	1.236167	-0.016420	3.029852
175.015280	2731.586747	1.241172	-0.016502	3.035208
175.533863	2742.654397	1.246177	-0.016602	3.040621
175.992241	2753.634418	1.251181	-0.016691	3.045973
176.708666	2764.675595	1.256186	-0.016828	3.051383
177.003283	2775.663590	1.261191	-0.016886	3.056696
177.444393	2786.697870	1.266195	-0.016971	3.062044
177.791536	2797.721710	1.271200	-0.017039	3.067363
178.067078	2808.739866	1.276205	-0.017094	3.072661
178.517424	2819.738546	1.281210	-0.017181	3.077964
179.251305	2830.780324	1.286214	-0.017321	3.083319
179.349379	2841.806113	1.291219	-0.017342	3.088568
179.849882	2852.804125	1.296224	-0.017439	3.093850
180.093996	2863.824678	1.301228	-0.017488	3.099099
180.672638	2874.853959	1.306233	-0.017599	3.104389
180.806119	2885.880377	1.311238	-0.017627	3.109607
181.248035	2896.884929	1.316243	-0.017712	3.114848
181.493557	2907.907191	1.321247	-0.017761	3.120062
181.841744	2918.917930	1.326252	-0.017829	3.125276
182.132523	2929.953640	1.331257	-0.017886	3.130485
182.802385	2940.926724	1.336262	-0.018015	3.135707
183.117832	2951.964623	1.341266	-0.018077	3.140903
183.599543	2962.994501	1.346271	-0.018170	3.146109
183.988146	2973.993207	1.351276	-0.018246	3.151279
184.461437	2985.009817	1.356280	-0.018337	3.156460
185.038042	2996.021558	1.361285	-0.018448	3.161645
185.449470	3007.055692	1.366290	-0.018528	3.166808
185.956247	3018.051373	1.371295	-0.018626	3.171959
186.374829	3029.096591	1.376299	-0.018707	3.177112
187.032101	3040.075735	1.381304	-0.018833	3.182258
187.531821	3051.145003	1.386309	-0.018930	3.187415
187.841701	3062.131408	1.391314	-0.018990	3.192502
188.319105	3073.153794	1.396318	-0.019083	3.197618
188.729531	3084.174174	1.401323	-0.019163	3.202717
189.157771	3095.219002	1.406328	-0.019246	3.207821
189.244725	3106.219759	1.411332	-0.019265	3.212851
189.840763	3117.206493	1.416337	-0.019379	3.217934
190.071373	3128.235761	1.421342	-0.019425	3.222981
190.351280	3139.279331	1.426347	-0.019480	3.228032
190.670278	3150.280972	1.431351	-0.019543	3.233062
191.029457	3161.296088	1.436356	-0.019613	3.238095
191.263576	3172.305951	1.441361	-0.019660	3.243101
191.745268	3183.349800	1.446366	-0.019753	3.248147
191.982048	3194.347843	1.451370	-0.019800	3.253133
192.631851	3205.352106	1.456375	-0.019925	3.258167
193.069807	3216.338105	1.461380	-0.020010	3.263158
193.733830	3227.407590	1.466384	-0.020137	3.268208
194.065430	3238.409278	1.471389	-0.020202	3.273176
194.642011	3249.424372	1.476394	-0.020313	3.278175
195.050125	3260.432885	1.481399	-0.020392	3.283141
195.581033	3271.464101	1.486403	-0.020495	3.288125
195.889291	3282.483382	1.491408	-0.020555	3.293068
196.350858	3293.504705	1.496413	-0.020644	3.298024
196.640948	3304.500306	1.501417	-0.020702	3.302939
197.154174	3315.539435	1.506422	-0.020801	3.307895
197.468917	3326.544625	1.511427	-0.020862	3.312802
197.721967	3337.580409	1.516432	-0.020913	3.317709
198.052376	3348.569070	1.521436	-0.020977	3.322596
198.464973	3359.612699	1.526441	-0.021057	3.327511
198.716254	3370.619923	1.531446	-0.021107	3.332383
199.253517	3381.618220	1.536451	-0.021211	3.337279
199.645286	3392.630790	1.541455	-0.021287	3.342156
200.212835	3403.683784	1.546460	-0.021396	3.347065
200.568095	3414.668986	1.551465	-0.021466	3.351911
201.075498	3425.693478	1.556469	-0.021564	3.356785
201.514732	3436.691295	1.561474	-0.021649	3.361633
202.061133	3447.733473	1.566479	-0.021754	3.366506
202.397479	3458.743994	1.571484	-0.021820	3.371332
202.673381	3469.783959	1.576488	-0.021874	3.376157
202.880883	3480.776228	1.581493	-0.021916	3.380946
203.357051	3491.799399	1.586498	-0.022008	3.385774
203.843576	3502.806233	1.591503	-0.022102	3.390589
204.315356	3513.835473	1.596507	-0.022193	3.395405
204.725833	3524.816716	1.601512	-0.022273	3.400186
205.080027	3535.875230	1.606517	-0.022342	3.404986
205.408179	3546.879866	1.611521	-0.022407	3.409754
205.805666	3557.903524	1.616526	-0.022484	3.414531
206.210390	3568.919848	1.621531	-0.022563	3.419299
206.501541	3579.919916	1.626536	-0.022620	3.424041
206.924547	3590.941384	1.631540	-0.022702	3.428800
207.203982	3601.964128	1.636545	-0.022757	3.433536
207.675036	3612.972105	1.641550	-0.022848	3.438282
207.986274	3623.998770	1.646555	-0.022909	3.443010
208.476128	3635.013660	1.651559	-0.023004	3.447747
208.802575	3646.019266	1.656564	-0.023068	3.452455
208.903086	3657.060399	1.661569	-0.023090	3.457146
209.359494	3668.036435	1.666573	-0.023178	3.461843
209.769290	3679.090157	1.671578	-0.023258	3.466562
210.107742	3690.090818	1.676583	-0.023324	3.471243
210.556526	3701.081580	1.681588	-0.023411	3.475927
211.020387	3712.132454	1.686592	-0.023501	3.480631
211.167312	3723.156858	1.691597	-0.023531	3.485281
211.527690	3734.159355	1.696602	-0.023601	3.489941
211.828460	3745.179012	1.701606	-0.023660	3.494594
212.376501	3756.170060	1.706611	-0.023766	3.499257
212.757466	3767.214347	1.711616	-0.023840	3.503918
213.078072	3778.243731	1.716621	-0.023903	3.508558
213.484617	3789.229428	1.721625	-0.023982	3.513185
213.851303	3800.258821	1.726630	-0.024054	3.517818
214.243886	3811.245731	1.731635	-0.024130	3.522431
214.535789	3822.316084	1.736640	-0.024188	3.527061
214.863428	3833.304946	1.741644	-0.024252	3.531655
215.172313	3844.331598	1.746649	-0.024312	3.536257
215.392555	3855.332659	1.751654	-0.024356	3.540832
215.694815	3866.345671	1.756658	-0.024416	3.545415
215.975397	3877.366187	1.761663	-0.024471	3.549992
216.308089	3888.387148	1.766668	-0.024536	3.554570
216.467330	3899.396424	1.771673	-0.024569	3.559118
216.845896	3910.416453	1.776677	-0.024643	3.563689
217.317056	3921.442855	1.781682	-0.024734	3.568266
217.620921	3932.441850	1.786687	-0.024794	3.572808
218.132769	3943.446692	1.791692	-0.024892	3.577369
218.401012	3954.489241	1.796696	-0.024946	3.581913
218.618620	3965.486155	1.801701	-0.024989	3.586427
218.947139	3976.518051	1.806706	-0.025053	3.590962
219.314066	3987.522494	1.811710	-0.025125	3.595484
219.834235	3998.515630	1.816715	-0.025225	3.600012
220.545082	4009.548432	1.821720	-0.025361	3.604571
220.961640	4020.570194	1.826725	-0.025442	3.609088
221.020877	4031.603961	1.831729	-0.025456	3.613566
221.451009	4042.613990	1.836734	-0.025540	3.618068
221.841319	4053.609268	1.841739	-0.025616	3.622554
222.180796	4064.631220	1.846744	-0.025682	3.627040
222.447977	4075.640542	1.851748	-0.025735	3.631508
222.661417	4086.673990	1.856753	-0.025778	3.635974
223.002741	4097.694420	1.861758	-0.025844	3.640443
223.467500	4108.745134	1.866762	-0.025934	3.644931
223.651020	4119.766417	1.871767	-0.025972	3.649373
223.894834	4130.792439	1.876772	-0.026020	3.653817
224.452145	4141.772319	1.881777	-0.026127	3.658270
224.672513	4152.825650	1.886781	-0.026171	3.662712
225.005088	4163.807608	1.891786	-0.026237	3.667131
225.327284	4174.843432	1.896791	-0.026300	3.671566
225.573334	4185.859485	1.901795	-0.026349	3.675979
226.008936	4196.861417	1.906800	-0.026433	3.680401
226.206968	4207.898140	1.911805	-0.026473	3.684807
226.683606	4218.881064	1.916810	-0.026565	3.689215
227.025425	4229.910320	1.921814	-0.026632	3.693622
227.460649	4240.923211	1.926819	-0.026716	3.698027
227.803894	4251.975908	1.931824	-0.026784	3.702432
228.158056	4262.950652	1.936829	-0.026853	3.706803
228.316897	4273.986971	1.941833	-0.026885	3.711173
228.667473	4284.990702	1.946838	-0.026954	3.715544
228.972143	4296.010062	1.951843	-0.027014	3.719912
229.407080	4307.023252	1.956847	-0.027098	3.724285
229.520578	4318.042911	1.961852	-0.027122	3.728623
229.850289	4329.067496	1.966857	-0.027187	3.732980
230.026828	4340.099281	1.971862	-0.027222	3.737319
230.308692	4351.064221	1.976866	-0.027278	3.741637
