Wed Nov 23 19:06:18 2022

Number of Points = 2200
Depth (nm)	Load (µN)	Time (s)	Depth (V)	Load (V)
-1.529189	1.154073	0.000000	-0.033288	1.144772
0.000000	8.186355	0.005005	-0.033577	1.154430
1.416267	17.762667	0.010009	-0.033845	1.167147
2.645089	28.574927	0.015014	-0.034078	1.181170
4.102898	39.591143	0.020019	-0.034354	1.195380
5.117612	50.763097	0.025024	-0.034547	1.209415
6.416288	61.831457	0.030028	-0.034794	1.223288
7.353602	72.987774	0.035033	-0.034972	1.236952
10.681376	83.575523	0.040038	-0.035599	1.250823
12.769779	94.933461	0.045043	-0.035994	1.264907
14.165959	106.158436	0.050047	-0.036259	1.278393
15.457839	117.284155	0.055052	-0.036504	1.291582
17.318769	128.354778	0.060057	-0.036856	1.304807
18.805208	139.454351	0.065061	-0.037138	1.317780
20.086771	150.547026	0.070066	-0.037381	1.330536
21.430680	161.646724	0.075071	-0.037636	1.343202
23.131798	172.633201	0.080076	-0.037958	1.355766
24.534471	183.794154	0.085080	-0.038224	1.368285
25.744278	194.909625	0.090085	-0.038453	1.380567
26.655900	206.022618	0.095090	-0.038627	1.392624
27.978064	217.031882	0.100094	-0.038878	1.404624
29.264307	228.105046	0.105099	-0.039122	1.416574
30.665554	239.155046	0.110104	-0.039388	1.428442
31.502249	250.328775	0.115109	-0.039548	1.440130
33.150172	261.240034	0.120113	-0.039859	1.451754
34.295726	272.414852	0.125118	-0.040077	1.463367
35.685777	283.408498	0.130123	-0.040341	1.474796
36.662217	294.565590	0.135128	-0.040527	1.486150
37.875844	305.593271	0.140132	-0.040757	1.497374
38.881432	316.657542	0.145137	-0.040949	1.508478
39.909930	327.756371	0.150142	-0.041144	1.519541
40.655761	338.825039	0.155146	-0.041287	1.530397
41.539817	349.905064	0.160151	-0.041456	1.541235
42.366388	360.939304	0.165156	-0.041613	1.551934
43.451743	371.948978	0.170161	-0.041820	1.562623
44.345333	383.034263	0.175165	-0.041990	1.573245
45.082601	394.139400	0.180170	-0.042131	1.583762
45.942826	405.134199	0.185175	-0.042295	1.594149
46.763285	416.219791	0.190180	-0.042452	1.604537
48.410663	427.011783	0.195184	-0.042764	1.614860
51.520230	438.041733	0.200189	-0.043350	1.625797
52.257734	449.362525	0.205194	-0.043491	1.636166
53.037431	460.388239	0.210198	-0.043640	1.646221
54.321040	471.408144	0.215203	-0.043884	1.656367
55.466953	482.419351	0.220208	-0.044102	1.666401
56.598035	493.519610	0.225213	-0.044317	1.676446
57.730397	504.555409	0.230217	-0.044532	1.686376
58.529637	515.625867	0.235222	-0.044685	1.696176
59.300757	526.708494	0.240227	-0.044832	1.705920
60.422329	537.666745	0.245232	-0.045045	1.715609
61.467161	548.739750	0.250236	-0.045244	1.725316
62.243957	559.816635	0.255241	-0.045393	1.734893
63.209505	570.844196	0.260246	-0.045576	1.744431
64.244430	581.860135	0.265250	-0.045773	1.753927
65.265731	592.916296	0.270255	-0.045968	1.763401
66.241938	603.944419	0.275260	-0.046154	1.772788
67.238009	615.009736	0.280265	-0.046343	1.782161
67.859766	626.099188	0.285269	-0.046463	1.791397
68.839303	637.066309	0.290274	-0.046649	1.800588
69.658400	648.140566	0.295279	-0.046806	1.809773
70.467297	659.201194	0.300283	-0.046960	1.818898
71.406049	670.184751	0.305288	-0.047139	1.827951
72.230020	681.268489	0.310293	-0.047296	1.837007
72.973351	692.310498	0.315298	-0.047439	1.845963
73.696520	703.362957	0.320302	-0.047577	1.854877
74.484133	714.359109	0.325307	-0.047728	1.863723
75.383025	725.406228	0.330312	-0.047899	1.872596
76.120328	736.445136	0.335317	-0.048040	1.881377
77.068072	747.470184	0.340321	-0.048221	1.890163
77.705189	758.543496	0.345326	-0.048343	1.898861
78.547202	769.548703	0.350331	-0.048504	1.907522
79.140500	780.611960	0.355335	-0.048618	1.916122
79.991443	791.627666	0.360340	-0.048780	1.924715
80.948486	802.638698	0.365345	-0.048962	1.933294
81.752063	813.692145	0.370350	-0.049116	1.941826
82.351143	824.748156	0.375354	-0.049231	1.950270
83.036191	835.767933	0.380359	-0.049362	1.958672
83.833930	846.793385	0.385364	-0.049515	1.967071
84.766276	857.823975	0.390369	-0.049692	1.975472
85.497177	868.849166	0.395373	-0.049832	1.983782
86.307405	879.905676	0.400378	-0.049987	1.992100
87.091155	890.913457	0.405383	-0.050137	2.000341
87.850530	901.952990	0.410387	-0.050282	2.008564
88.757414	912.991466	0.415392	-0.050455	2.016790
89.489749	924.032752	0.420397	-0.050595	2.024941
90.086265	935.061068	0.425402	-0.050710	2.033016
90.813137	946.105281	0.430406	-0.050849	2.041102
91.218407	957.141037	0.435411	-0.050928	2.049072
92.138932	968.146248	0.440416	-0.051103	2.057113
92.703753	979.197903	0.445421	-0.051212	2.065070
93.608827	990.189746	0.450425	-0.051384	2.073036
94.028110	1001.285153	0.455430	-0.051466	2.080928
94.512774	1012.302845	0.460435	-0.051559	2.088751
95.460480	1023.277080	0.465439	-0.051740	2.096624
96.158028	1034.340549	0.470444	-0.051874	2.104469
96.746355	1045.388368	0.475449	-0.051987	2.112250
97.618922	1056.388265	0.480454	-0.052153	2.120034
98.185425	1067.445538	0.485458	-0.052262	2.127758
99.130681	1078.444837	0.490463	-0.052442	2.135502
99.818135	1089.474079	0.495468	-0.052574	2.143179
100.405897	1100.536220	0.500472	-0.052687	2.150827
101.113576	1111.546259	0.505477	-0.052823	2.158440
101.738185	1122.582574	0.510482	-0.052943	2.166025
102.322620	1133.624811	0.515487	-0.053055	2.173578
102.909762	1144.645358	0.520491	-0.053168	2.181091
103.506685	1155.660422	0.525496	-0.053283	2.188576
104.366230	1166.678214	0.530501	-0.053447	2.196096
104.761984	1177.734535	0.535506	-0.053524	2.203513
105.473584	1188.747908	0.540510	-0.053660	2.210946
106.064579	1199.764120	0.545515	-0.053773	2.218329
106.982870	1210.787526	0.550520	-0.053948	2.225764
107.590348	1221.822869	0.555524	-0.054065	2.233113
108.030604	1232.883304	0.560529	-0.054151	2.240419
108.588502	1243.881516	0.565534	-0.054258	2.247685
109.209422	1254.935751	0.570539	-0.054377	2.254978
109.583965	1265.950783	0.575543	-0.054450	2.262168
110.114043	1276.971174	0.580548	-0.054552	2.269373
110.768690	1287.959088	0.585553	-0.054678	2.276560
111.681796	1298.991762	0.590558	-0.054852	2.283808
111.949828	1310.065451	0.595562	-0.054905	2.290922
112.520682	1321.076898	0.600567	-0.055015	2.298039
113.094896	1332.082808	0.605572	-0.055125	2.305130
113.901373	1343.086230	0.610576	-0.055279	2.312247
114.683405	1354.114856	0.615581	-0.055429	2.319352
115.237742	1365.171897	0.620586	-0.055536	2.326406
115.916339	1376.175228	0.625591	-0.055666	2.333430
116.537394	1387.225349	0.630595	-0.055785	2.340450
116.828493	1398.254411	0.635600	-0.055842	2.347369
117.698331	1409.234072	0.640605	-0.056008	2.354354
118.229008	1420.292990	0.645610	-0.056111	2.361299
118.952717	1431.290909	0.650614	-0.056249	2.368224
119.487441	1442.356242	0.655619	-0.056352	2.375132
120.124405	1453.347727	0.660624	-0.056474	2.381996
120.783079	1464.358108	0.665628	-0.056601	2.388855
121.428081	1475.424901	0.670633	-0.056725	2.395726
121.908692	1486.420994	0.675638	-0.056817	2.402502
122.592950	1497.468464	0.680643	-0.056949	2.409330
123.019383	1508.484345	0.685647	-0.057031	2.416068
123.969480	1519.439939	0.690652	-0.057212	2.422854
124.301255	1530.575252	0.695657	-0.057277	2.429608
124.866484	1541.534145	0.700661	-0.057386	2.436282
125.400747	1552.574365	0.705666	-0.057489	2.442981
126.128164	1563.579198	0.710671	-0.057628	2.449678
126.636088	1574.622386	0.715676	-0.057726	2.456336
127.493278	1585.612245	0.720680	-0.057890	2.463012
127.949993	1596.671043	0.725685	-0.057978	2.469634
128.413062	1607.701361	0.730690	-0.058068	2.476222
128.731641	1618.730256	0.735695	-0.058130	2.482764
129.589626	1629.708410	0.740699	-0.058294	2.489361
130.110803	1640.755673	0.745704	-0.058395	2.495918
130.878925	1651.766331	0.750709	-0.058542	2.502482
131.423445	1662.795596	0.755713	-0.058646	2.508998
131.901108	1673.839309	0.760718	-0.058739	2.515492
132.259177	1684.848254	0.765723	-0.058809	2.521927
133.137063	1695.835690	0.770728	-0.058976	2.528430
133.556149	1706.902753	0.775732	-0.059058	2.534877
133.941891	1717.941817	0.780737	-0.059133	2.541285
134.283905	1728.942312	0.785742	-0.059200	2.547646
134.952187	1739.940432	0.790747	-0.059328	2.554050
135.480633	1750.976146	0.795751	-0.059430	2.560434
135.974828	1762.021449	0.800756	-0.059525	2.566801
136.261500	1773.055916	0.805761	-0.059582	2.573108
136.579852	1784.118475	0.810765	-0.059644	2.579421
136.870882	1795.062180	0.815770	-0.059701	2.585647
137.534390	1806.093055	0.820775	-0.059829	2.591974
137.815178	1817.114739	0.825780	-0.059884	2.598211
138.551298	1828.105345	0.830784	-0.060025	2.604497
139.302655	1839.132630	0.835789	-0.060169	2.610791
139.655997	1850.177444	0.840794	-0.060238	2.617009
140.190034	1861.192232	0.845799	-0.060341	2.623227
140.825581	1872.193928	0.850803	-0.060462	2.629441
141.234591	1883.233041	0.855808	-0.060542	2.635621
141.841631	1894.265081	0.860813	-0.060659	2.641818
142.023247	1905.300657	0.865817	-0.060695	2.647927
142.616069	1916.291445	0.870822	-0.060809	2.654069
143.032055	1927.323797	0.875827	-0.060890	2.660189
143.539345	1938.335458	0.880832	-0.060988	2.666299
143.961297	1949.358249	0.885836	-0.061070	2.672386
144.406637	1960.387850	0.890841	-0.061156	2.678467
144.969097	1971.376741	0.895846	-0.061265	2.684532
145.467821	1982.437297	0.900850	-0.061361	2.690611
146.047172	1993.411955	0.905855	-0.061472	2.696644
146.498487	2004.484739	0.910860	-0.061560	2.702694
146.914146	2015.469306	0.915865	-0.061640	2.708677
147.294322	2026.530015	0.920869	-0.061714	2.714682
147.643237	2037.521132	0.925874	-0.061783	2.720630
148.327687	2048.502112	0.930879	-0.061914	2.726617
148.763776	2059.587779	0.935884	-0.061998	2.732604
149.207503	2070.539758	0.940888	-0.062084	2.738508
149.656345	2081.575524	0.945893	-0.062171	2.744445
149.817087	2092.629790	0.950898	-0.062204	2.750331
150.238681	2103.608082	0.955902	-0.062286	2.756207
150.909797	2114.625966	0.960907	-0.062415	2.762133
151.414113	2125.645628	0.965912	-0.062512	2.768019
152.042495	2136.678654	0.970917	-0.062633	2.773920
152.141310	2147.714357	0.975921	-0.062654	2.779723
152.645068	2158.723089	0.980926	-0.062751	2.785566
152.949222	2169.748790	0.985931	-0.062811	2.791373
153.509509	2180.749459	0.990936	-0.062919	2.797196
153.948583	2191.779507	0.995940	-0.063004	2.803003
154.574909	2202.795390	1.000945	-0.063124	2.808820
154.752440	2213.833282	1.005950	-0.063160	2.814564
155.230642	2224.842623	1.010954	-0.063253	2.820330
155.700258	2235.837133	1.015959	-0.063344	2.826076
156.277958	2246.881316	1.020964	-0.063455	2.831852
156.422456	2257.912076	1.025969	-0.063485	2.837540
157.107052	2268.880319	1.030973	-0.063616	2.843271
157.597973	2279.924456	1.035978	-0.063711	2.848998
158.006622	2290.961024	1.040983	-0.063790	2.854696
158.402810	2301.964472	1.045988	-0.063867	2.860364
159.058210	2312.973284	1.050992	-0.063993	2.866065
159.405605	2324.032815	1.055997	-0.064061	2.871731
160.032740	2335.006621	1.061002	-0.064181	2.877386
160.239488	2346.067238	1.066006	-0.064223	2.883009
160.575988	2357.069722	1.071011	-0.064288	2.888611
161.088681	2368.104021	1.076016	-0.064387	2.894246
161.523436	2379.117696	1.081021	-0.064472	2.899847
161.625408	2390.124515	1.086025	-0.064494	2.905383
161.923150	2401.162677	1.091030	-0.064552	2.910954
162.105226	2412.185016	1.096035	-0.064589	2.916489
162.900197	2423.140991	1.101039	-0.064741	2.922073
163.228947	2434.204726	1.106044	-0.064805	2.927629
163.594494	2445.220182	1.111049	-0.064877	2.933156
164.096870	2456.212162	1.116054	-0.064974	2.938682
164.508728	2467.259804	1.121058	-0.065054	2.944211
164.925936	2478.272029	1.126063	-0.065135	2.949713
165.451092	2489.278966	1.131068	-0.065236	2.955218
165.957209	2500.312786	1.136073	-0.065334	2.960723
166.191182	2511.349408	1.141077	-0.065380	2.966179
166.442217	2522.340920	1.146082	-0.065430	2.971605
167.133190	2533.343409	1.151087	-0.065563	2.977091
167.491391	2544.369975	1.156091	-0.065632	2.982530
167.937782	2555.411047	1.161096	-0.065719	2.987979
168.263816	2566.424852	1.166101	-0.065783	2.993386
168.591739	2577.445511	1.171106	-0.065847	2.998788
168.985804	2588.442077	1.176110	-0.065924	3.004178
169.684098	2599.471569	1.181115	-0.066058	3.009618
170.062980	2610.488764	1.186120	-0.066131	3.014996
170.625134	2621.492598	1.191125	-0.066240	3.020384
171.069535	2632.524649	1.196129	-0.066326	3.025759
171.485148	2643.563953	1.201134	-0.066406	3.031124
171.658343	2654.558166	1.206139	-0.066442	3.036423
172.158251	2665.569008	1.211143	-0.066538	3.041767
172.464943	2676.622007	1.216148	-0.066598	3.047095
172.747651	2687.627178	1.221153	-0.066654	3.052387
172.948663	2698.621597	1.226158	-0.066695	3.057653
173.472672	2709.650985	1.231162	-0.066796	3.062972
173.761771	2720.678313	1.236167	-0.066853	3.068247
174.432745	2731.666491	1.241172	-0.066981	3.073549
174.532740	2742.733124	1.246177	-0.067003	3.078798
174.940001	2753.718605	1.251181	-0.067082	3.084043
175.242536	2764.769421	1.256186	-0.067141	3.089295
175.688243	2775.738018	1.261191	-0.067228	3.094519
176.147565	2786.771494	1.266195	-0.067317	3.099767
176.575542	2797.798760	1.271200	-0.067400	3.104999
177.051151	2808.803039	1.276205	-0.067492	3.110217
177.545442	2819.834185	1.281210	-0.067587	3.115442
177.560929	2830.875079	1.286214	-0.067593	3.120597
178.236320	2841.825055	1.291219	-0.067722	3.125791
178.725780	2852.892824	1.296224	-0.067817	3.131005
179.285703	2863.873469	1.301228	-0.067925	3.136180
179.721697	2874.913160	1.306233	-0.068009	3.141357
180.048908	2885.940545	1.311238	-0.068073	3.146505
180.363148	2896.947523	1.316243	-0.068135	3.151633
180.741877	2907.982391	1.321247	-0.068209	3.156775
180.863284	2918.997365	1.326252	-0.068234	3.161864
181.331633	2930.006640	1.331257	-0.068325	3.166989
181.512394	2941.020584	1.336262	-0.068362	3.172069
182.204977	2952.024271	1.341266	-0.068494	3.177204
182.457858	2963.054671	1.346271	-0.068544	3.182285
182.903125	2974.080668	1.351276	-0.068631	3.187381
183.539197	2985.059202	1.356280	-0.068753	3.192472
183.933996	2996.110685	1.361285	-0.068830	3.197557
184.214454	3007.145893	1.366290	-0.068885	3.202611
184.426794	3018.165506	1.371295	-0.068928	3.207640
184.736960	3029.147509	1.376299	-0.068988	3.212658
185.151183	3040.175685	1.381304	-0.069069	3.217702
185.591281	3051.178868	1.386309	-0.069154	3.222731
185.989264	3062.220816	1.391314	-0.069232	3.227763
186.376023	3073.218421	1.396318	-0.069307	3.232766
186.754717	3084.239944	1.401323	-0.069381	3.237771
187.019853	3095.262783	1.406328	-0.069433	3.242754
187.428404	3106.274977	1.411332	-0.069513	3.247743
187.820595	3117.293151	1.416337	-0.069589	3.252725
188.215653	3128.325698	1.421342	-0.069666	3.257706
188.591264	3139.299867	1.426347	-0.069739	3.262650
189.119110	3150.356293	1.431351	-0.069841	3.267643
189.359203	3161.345791	1.436356	-0.069888	3.272562
189.951916	3172.380306	1.441361	-0.070002	3.277538
190.088391	3183.403564	1.446366	-0.070031	3.282444
190.130615	3194.454738	1.451370	-0.070041	3.287343
190.332973	3205.433842	1.456375	-0.070082	3.292223
190.701805	3216.443045	1.461380	-0.070154	3.297130
191.153379	3227.437051	1.466384	-0.070241	3.302033
191.577537	3238.482587	1.471389	-0.070324	3.306948
191.827718	3249.510336	1.476394	-0.070373	3.311826
192.270313	3260.512300	1.481399	-0.070459	3.316710
192.447788	3271.534501	1.486403	-0.070495	3.321562
192.943531	3282.548888	1.491408	-0.070591	3.326443
193.215668	3293.565745	1.496413	-0.070645	3.331290
193.408806	3304.597530	1.501417	-0.070684	3.336127
193.818349	3315.567436	1.506422	-0.070763	3.340957
194.216425	3326.617884	1.511427	-0.070841	3.345812
194.537689	3337.621474	1.516432	-0.070904	3.350632
195.264785	3348.633293	1.521436	-0.071043	3.355497
195.880379	3359.625243	1.526441	-0.071161	3.360332
196.317604	3370.697997	1.531446	-0.071246	3.365174
196.754754	3381.688764	1.536451	-0.071331	3.369974
197.070400	3392.713624	1.541455	-0.071393	3.374766
197.403892	3403.729897	1.546460	-0.071458	3.379550
197.592216	3414.764788	1.551465	-0.071496	3.384318
197.823685	3425.768490	1.556469	-0.071542	3.389071
197.805816	3436.810592	1.561474	-0.071542	3.393804
198.045821	3447.787683	1.566479	-0.071589	3.398533
198.902082	3458.772156	1.571484	-0.071753	3.403332
199.358615	3469.830398	1.576488	-0.071841	3.408108
199.961537	3480.811290	1.581493	-0.071957	3.412862
200.184676	3491.863276	1.586498	-0.072002	3.417594
200.647979	3502.873957	1.591503	-0.072091	3.422331
201.023386	3513.904008	1.596507	-0.072164	3.427058
201.463620	3524.902297	1.601512	-0.072250	3.431773
201.550905	3535.928556	1.606517	-0.072269	3.436453
201.982316	3546.934292	1.611521	-0.072353	3.441157
202.292169	3557.956380	1.616526	-0.072413	3.445847
202.645822	3568.981748	1.621531	-0.072482	3.450538
202.607674	3580.004617	1.626536	-0.072478	3.455176
203.048959	3590.994756	1.631540	-0.072564	3.459849
203.548021	3602.015589	1.636545	-0.072660	3.464535
204.030212	3613.055688	1.641550	-0.072753	3.469221
204.345791	3624.032893	1.646555	-0.072815	3.473855
204.892094	3635.071102	1.651559	-0.072920	3.478534
205.178790	3646.067610	1.656564	-0.072977	3.483160
205.854399	3657.109342	1.661569	-0.073106	3.487843
205.901759	3668.109574	1.666573	-0.073118	3.492431
206.265827	3679.143333	1.671578	-0.073189	3.497063
206.299667	3690.165212	1.676583	-0.073198	3.501647
206.888147	3701.156480	1.681588	-0.073311	3.506274
207.204431	3712.170252	1.686592	-0.073373	3.510873
207.523040	3723.195869	1.691597	-0.073436	3.515472
207.743894	3734.225624	1.696602	-0.073480	3.520056
208.015561	3745.244121	1.701606	-0.073534	3.524634
208.365855	3756.254462	1.706611	-0.073602	3.529212
208.594889	3767.271141	1.711616	-0.073648	3.533773
208.833087	3778.297517	1.716621	-0.073695	3.538333
209.267127	3789.262063	1.721625	-0.073779	3.542883
209.561298	3800.327451	1.726630	-0.073837	3.547453
210.001581	3811.308658	1.731635	-0.073923	3.551999
210.290459	3822.346471	1.736640	-0.073980	3.556546
210.710346	3833.337576	1.741644	-0.074061	3.561082
211.163742	3844.370100	1.746649	-0.074149	3.565632
211.572697	3855.372281	1.751654	-0.074228	3.570160
211.703456	3866.432391	1.756658	-0.074256	3.574675
212.017902	3877.420706	1.761663	-0.074317	3.579175
212.035806	3888.462145	1.766668	-0.074324	3.583659
212.728841	3899.418616	1.771673	-0.074456	3.588175
213.010817	3910.485716	1.776677	-0.074512	3.592687
213.481385	3921.487532	1.781682	-0.074603	3.597186
213.873893	3932.482494	1.786687	-0.074679	3.601669
214.167971	3943.539285	1.791692	-0.074737	3.606160
214.547154	3954.505396	1.796696	-0.074811	3.610618
215.055222	3965.557683	1.801701	-0.074909	3.615119
215.488519	3976.533571	1.806706	-0.074993	3.619576
216.085505	3987.579805	1.811710	-0.075108	3.624073
216.304632	3998.598079	1.816715	-0.075152	3.628512
216.502141	4009.627156	1.821720	-0.075192	3.632949
216.834521	4020.639099	1.826725	-0.075257	3.637387
217.124681	4031.631300	1.831729	-0.075314	3.641807
217.474328	4042.659093	1.836734	-0.075382	3.646243
217.762253	4053.650161	1.841739	-0.075439	3.650652
218.187432	4064.690265	1.846744	-0.075521	3.655089
218.576832	4075.696146	1.851748	-0.075597	3.659504
218.841571	4086.723849	1.856753	-0.075650	3.663908
219.393560	4097.767284	1.861758	-0.075756	3.668344
219.608809	4108.789328	1.866762	-0.075799	3.672731
220.016566	4119.832251	1.871767	-0.075878	3.677140
220.216121	4130.827515	1.876772	-0.075918	3.681504
220.606467	4141.844996	1.881777	-0.075994	3.685891
220.771734	4152.858295	1.886781	-0.076028	3.690248
221.195480	4163.861363	1.891786	-0.076110	3.694622
221.537536	4174.888682	1.896791	-0.076177	3.698992
221.685421	4185.934252	1.901795	-0.076208	3.703345
221.833905	4196.919518	1.906800	-0.076238	3.707669
222.533971	4207.926007	1.911805	-0.076372	3.712051
222.817036	4218.956288	1.916810	-0.076428	3.716396
223.211751	4229.952573	1.921814	-0.076505	3.720733
223.513757	4241.010705	1.926819	-0.076565	3.725080
223.844847	4251.975197	1.931824	-0.076629	3.729389
224.148702	4263.010986	1.936829	-0.076689	3.733717
224.524570	4274.026919	1.941833	-0.076762	3.738040
224.662548	4285.054181	1.946838	-0.076791	3.742338
224.985827	4296.087057	1.951843	-0.076854	3.746652
225.254501	4307.068727	1.956847	-0.076907	3.750936
225.746767	4318.077881	1.961852	-0.077003	3.755247
226.033586	4329.119412	1.966857	-0.077059	3.759546
