Wed Nov 23 19:44:20 2022

Number of Points = 2200
Depth (nm)	Load (µN)	Time (s)	Depth (V)	Load (V)
-3.909351	0.589532	0.000000	0.004614	1.044291
0.000000	7.104341	0.005005	0.003878	1.055432
2.955251	16.641239	0.010009	0.003322	1.070126
5.472212	27.482447	0.015014	0.002847	1.086165
7.139217	38.736212	0.020019	0.002531	1.102102
8.858660	49.865313	0.025024	0.002206	1.117672
10.816298	60.960848	0.030028	0.001836	1.133096
12.382959	72.205339	0.035033	0.001539	1.148319
13.687929	83.355226	0.040038	0.001291	1.163100
16.062036	94.262747	0.045043	0.000843	1.177882
18.651319	105.310014	0.050047	0.000354	1.192748
20.384973	116.601596	0.055052	0.000026	1.207345
21.947955	127.767870	0.060057	-0.000270	1.221541
23.798780	138.831857	0.065061	-0.000620	1.235576
25.073343	150.050396	0.070066	-0.000862	1.249386
26.624231	161.096988	0.075071	-0.001155	1.262962
27.974598	172.247522	0.080076	-0.001412	1.276427
28.917615	183.414549	0.085080	-0.001591	1.289601
30.415027	194.446201	0.090085	-0.001875	1.302716
31.993237	205.473872	0.095090	-0.002174	1.315728
33.364777	216.576992	0.100094	-0.002434	1.328612
34.681047	227.696336	0.105099	-0.002684	1.341366
35.685952	238.800356	0.110104	-0.002875	1.353861
37.074663	249.844507	0.115109	-0.003138	1.366326
38.519513	260.901663	0.120113	-0.003412	1.378713
39.832489	272.000886	0.125118	-0.003661	1.390982
41.126917	283.077505	0.130123	-0.003907	1.403113
42.454680	294.136385	0.135128	-0.004159	1.415133
43.591629	305.245369	0.140132	-0.004375	1.427032
44.699362	316.329974	0.145137	-0.004586	1.438796
45.738521	327.395888	0.150142	-0.004783	1.450420
46.911426	338.458520	0.155146	-0.005006	1.461996
48.106378	349.496129	0.160151	-0.005233	1.473464
49.340074	360.576302	0.165156	-0.005467	1.484898
50.474232	371.630096	0.170161	-0.005683	1.496183
51.630450	382.688530	0.175165	-0.005902	1.507395
52.746917	393.764393	0.180170	-0.006115	1.518526
53.969902	404.803507	0.185175	-0.006347	1.529578
55.029316	415.903104	0.190180	-0.006548	1.540551
56.530970	426.881925	0.195184	-0.006833	1.551481
57.584481	438.007709	0.200189	-0.007033	1.562322
58.785118	449.033901	0.205194	-0.007261	1.573044
59.688703	460.139810	0.210198	-0.007434	1.583668
60.614901	471.170081	0.215203	-0.007610	1.594158
62.083808	482.168870	0.220208	-0.007889	1.604728
63.013542	493.304864	0.225213	-0.008066	1.615177
64.005460	504.351514	0.230217	-0.008255	1.625499
64.965559	515.358929	0.235222	-0.008438	1.635709
66.151237	526.408210	0.240227	-0.008663	1.645964
67.131260	537.487512	0.245232	-0.008849	1.656117
67.984461	548.539772	0.250236	-0.009012	1.666145
69.126259	559.561747	0.255241	-0.009229	1.676174
69.995761	570.631227	0.260246	-0.009395	1.686101
70.959656	581.680468	0.265250	-0.009579	1.695981
72.185548	592.670719	0.270255	-0.009811	1.705832
73.065593	603.778915	0.275260	-0.009979	1.715623
74.267694	614.756946	0.280265	-0.010208	1.725343
75.156491	625.862123	0.285269	-0.010377	1.735022
76.032038	636.913260	0.290274	-0.010544	1.744598
77.193833	647.882504	0.295279	-0.010765	1.754137
78.229738	658.975323	0.300283	-0.010962	1.763690
79.396898	669.988731	0.305288	-0.011184	1.773163
80.179676	681.092871	0.310293	-0.011333	1.782549
81.131170	692.102915	0.315298	-0.011515	1.791857
82.038504	703.145721	0.320302	-0.011688	1.801130
83.198794	714.146676	0.325307	-0.011908	1.810393
83.831707	725.273431	0.330312	-0.012030	1.819561
84.811875	736.260007	0.335317	-0.012216	1.828668
85.497103	747.335859	0.340321	-0.012347	1.837719
86.480856	758.338283	0.345326	-0.012535	1.846749
87.394927	769.378160	0.350331	-0.012709	1.855745
88.586269	780.370879	0.355335	-0.012935	1.864736
89.721077	791.430172	0.360340	-0.013151	1.873720
90.533658	802.496658	0.365345	-0.013306	1.882579
91.404502	813.541293	0.370350	-0.013472	1.891395
92.154183	824.588311	0.375354	-0.013616	1.900139
93.011673	835.601477	0.380359	-0.013779	1.908845
93.988917	846.641616	0.385364	-0.013965	1.917564
94.646034	857.703491	0.390369	-0.014092	1.926175
95.322128	868.746710	0.395373	-0.014221	1.934738
95.988982	879.768428	0.400378	-0.014349	1.943245
97.080971	890.720444	0.405383	-0.014557	1.951772
98.054502	901.815649	0.410387	-0.014742	1.960338
98.757801	912.865074	0.415392	-0.014877	1.968763
99.687399	923.860382	0.420397	-0.015054	1.977170
100.678284	934.905945	0.425402	-0.015243	1.985593
101.585938	945.932333	0.430406	-0.015416	1.993945
102.297423	956.993774	0.435411	-0.015552	2.002238
103.165311	968.022631	0.440416	-0.015717	2.010512
104.002083	979.049195	0.445421	-0.015877	2.018742
104.924474	990.058522	0.450425	-0.016053	2.026947
105.555094	1001.150063	0.455430	-0.016174	2.035106
106.240084	1012.154927	0.460435	-0.016305	2.043183
107.149585	1023.155994	0.465439	-0.016479	2.051281
107.697760	1034.257344	0.470444	-0.016584	2.059329
108.500614	1045.248075	0.475449	-0.016738	2.067329
109.257662	1056.287553	0.480454	-0.016882	2.075322
110.263155	1067.266053	0.485458	-0.017074	2.083300
111.140122	1078.350029	0.490463	-0.017241	2.091291
111.903040	1089.373831	0.495468	-0.017387	2.099181
112.447253	1100.434239	0.500472	-0.017492	2.107016
113.316660	1111.420352	0.505477	-0.017658	2.114846
114.063512	1122.448195	0.510482	-0.017801	2.122648
114.884521	1133.506675	0.515487	-0.017957	2.130458
115.657755	1144.504110	0.520491	-0.018105	2.138187
116.504040	1155.532863	0.525496	-0.018267	2.145927
117.111786	1166.611531	0.530501	-0.018383	2.153617
117.591065	1177.636235	0.535506	-0.018476	2.161213
118.495755	1188.608945	0.540510	-0.018649	2.168844
119.433143	1199.650552	0.545515	-0.018827	2.176503
120.075337	1210.708136	0.550520	-0.018950	2.184078
120.748116	1221.726752	0.555524	-0.019079	2.191607
121.365486	1232.747366	0.560529	-0.019198	2.199099
122.369000	1243.747858	0.565534	-0.019389	2.206639
123.025517	1254.811782	0.570539	-0.019515	2.214117
123.847106	1265.805024	0.575543	-0.019672	2.221559
124.572632	1276.878339	0.580548	-0.019811	2.229008
125.570948	1287.839049	0.585553	-0.020001	2.236418
126.089742	1298.948668	0.590558	-0.020101	2.243796
126.766548	1309.934598	0.595562	-0.020231	2.251103
127.469668	1320.986361	0.600567	-0.020365	2.258434
128.214360	1331.977291	0.605572	-0.020508	2.265712
128.890662	1343.015318	0.610576	-0.020637	2.272981
129.601300	1354.053322	0.615581	-0.020773	2.280234
130.265114	1365.058682	0.620586	-0.020901	2.287433
131.084421	1376.101550	0.625591	-0.021057	2.294666
131.584800	1387.119511	0.630595	-0.021154	2.301793
132.503820	1398.122721	0.635600	-0.021329	2.308977
133.075188	1409.167680	0.640605	-0.021439	2.316091
133.685558	1420.227150	0.645610	-0.021556	2.323201
134.414971	1431.217394	0.650614	-0.021696	2.330270
135.050769	1442.255795	0.655619	-0.021818	2.337328
135.771594	1453.272424	0.660624	-0.021956	2.344368
136.270765	1464.318750	0.665628	-0.022052	2.351360
136.815796	1475.326011	0.670633	-0.022157	2.358317
137.483841	1486.346158	0.675638	-0.022285	2.365285
138.254094	1497.357008	0.680643	-0.022432	2.372249
138.839322	1508.409454	0.685647	-0.022545	2.379179
139.383685	1519.430164	0.690652	-0.022650	2.386062
140.061970	1530.443266	0.695657	-0.022780	2.392946
140.498482	1541.474539	0.700661	-0.022865	2.399774
141.333593	1552.479474	0.705666	-0.023024	2.406645
142.075487	1563.516889	0.710671	-0.023166	2.413498
142.582919	1574.548668	0.715676	-0.023264	2.420281
143.109669	1585.578923	0.720680	-0.023365	2.427048
143.747547	1596.597351	0.725685	-0.023488	2.433811
144.229705	1607.602859	0.730690	-0.023581	2.440516
145.237112	1618.609016	0.735695	-0.023773	2.447306
145.631711	1629.703578	0.740699	-0.023850	2.454010
146.048716	1640.692398	0.745704	-0.023931	2.460638
146.701796	1651.695761	0.750709	-0.024056	2.467301
147.129441	1662.748966	0.755713	-0.024139	2.473933
147.911200	1673.718212	0.760718	-0.024288	2.480565
148.646146	1684.770593	0.765723	-0.024429	2.487219
149.216317	1695.806683	0.770728	-0.024539	2.493814
149.565529	1706.858454	0.775732	-0.024607	2.500359
150.021701	1717.845901	0.780737	-0.024695	2.506869
150.713545	1728.867654	0.785742	-0.024828	2.513426
151.262015	1739.888767	0.790747	-0.024933	2.519939
151.898932	1750.906248	0.795751	-0.025056	2.526450
152.529589	1761.939687	0.800756	-0.025177	2.532951
153.076325	1772.935505	0.805761	-0.025282	2.539399
153.592534	1783.994336	0.810765	-0.025382	2.545860
154.179557	1795.006620	0.815770	-0.025494	2.552292
154.809951	1806.012794	0.820775	-0.025615	2.558711
155.249478	1817.064340	0.825780	-0.025701	2.565105
155.742611	1828.076371	0.830784	-0.025796	2.571470
156.116194	1839.169092	0.835789	-0.025869	2.577844
156.581819	1850.114422	0.840794	-0.025959	2.584135
157.420134	1861.105124	0.845799	-0.026119	2.590503
157.914181	1872.153756	0.850803	-0.026214	2.596826
158.487701	1883.193445	0.855808	-0.026325	2.603143
158.987428	1894.173281	0.860813	-0.026421	2.609398
159.727619	1905.201222	0.865817	-0.026563	2.615707
160.327991	1916.233482	0.870822	-0.026678	2.621979
160.764052	1927.271098	0.875827	-0.026763	2.628209
161.101452	1938.300623	0.880832	-0.026829	2.634402
161.519840	1949.315554	0.885836	-0.026910	2.640587
162.177016	1960.298111	0.890841	-0.027036	2.646781
162.849821	1971.356084	0.895846	-0.027165	2.653005
163.499450	1982.335375	0.900850	-0.027290	2.659167
164.238230	1993.368439	0.905855	-0.027431	2.665360
164.719927	2004.418447	0.910860	-0.027524	2.671502
165.218435	2015.416066	0.915865	-0.027620	2.677605
165.796418	2026.442338	0.920869	-0.027732	2.683723
166.365754	2037.460530	0.925874	-0.027841	2.689821
166.852434	2048.486863	0.930879	-0.027935	2.695895
167.422301	2059.468045	0.935884	-0.028045	2.701945
167.782406	2070.529171	0.940888	-0.028115	2.707989
168.196448	2081.537672	0.945893	-0.028195	2.714000
168.650663	2092.549762	0.950898	-0.028283	2.720006
169.286590	2103.559881	0.955902	-0.028405	2.726029
169.935179	2114.577778	0.960907	-0.028530	2.732045
170.545395	2125.607125	0.965912	-0.028647	2.738046
170.966945	2136.609358	0.970917	-0.028729	2.743989
171.375963	2147.671597	0.975921	-0.028808	2.749948
171.905922	2158.654028	0.980926	-0.028911	2.755872
172.558695	2169.683057	0.985931	-0.029036	2.761828
173.029672	2180.710239	0.990936	-0.029127	2.767740
173.569807	2191.723425	0.995940	-0.029231	2.773644
173.995619	2202.737089	1.000945	-0.029314	2.779516
174.557397	2213.760144	1.005950	-0.029422	2.785403
175.134886	2224.786244	1.010954	-0.029533	2.791281
175.768646	2235.782979	1.015959	-0.029655	2.797141
176.464891	2246.808670	1.020964	-0.029788	2.803013
176.961917	2257.856052	1.025969	-0.029884	2.808852
177.354199	2268.873614	1.030973	-0.029960	2.814647
177.942103	2279.878418	1.035978	-0.030073	2.820454
178.274329	2290.907969	1.040983	-0.030138	2.826221
178.909189	2301.928494	1.045988	-0.030260	2.832020
179.218555	2312.925176	1.050992	-0.030321	2.837742
179.966855	2323.953966	1.055997	-0.030464	2.843540
180.565990	2334.968252	1.061002	-0.030579	2.849294
180.978760	2346.014213	1.066006	-0.030659	2.855023
181.288121	2357.015160	1.071011	-0.030720	2.860701
181.920806	2368.028205	1.076016	-0.030842	2.866425
182.519493	2379.056692	1.081021	-0.030957	2.872140
182.995064	2390.070100	1.086025	-0.031049	2.877816
183.324541	2401.104472	1.091030	-0.031113	2.883469
183.700523	2412.142320	1.096035	-0.031187	2.889120
184.089672	2423.140718	1.101039	-0.031262	2.894742
184.859815	2434.136659	1.106044	-0.031409	2.900410
185.256141	2445.173732	1.111049	-0.031487	2.906031
185.663039	2456.216979	1.116054	-0.031566	2.911645
185.820238	2467.217438	1.121058	-0.031598	2.917188
186.329177	2478.220406	1.126063	-0.031696	2.922776
187.076385	2489.220610	1.131068	-0.031839	2.928388
187.634766	2500.266408	1.136073	-0.031947	2.933983
188.053210	2511.287977	1.141077	-0.032028	2.939533
188.611813	2522.283273	1.146082	-0.032135	2.945082
188.986333	2533.345717	1.151087	-0.032208	2.950625
189.549700	2544.326713	1.156091	-0.032317	2.956146
190.233010	2555.343790	1.161096	-0.032448	2.961692
190.808172	2566.351030	1.166101	-0.032558	2.967207
191.189683	2577.424604	1.171106	-0.032633	2.972715
191.445563	2588.418452	1.176110	-0.032683	2.978155
192.093086	2599.407567	1.181115	-0.032808	2.983641
192.589254	2610.454322	1.186120	-0.032903	2.989122
193.193940	2621.448318	1.191125	-0.033020	2.994584
193.511228	2632.509800	1.196129	-0.033082	3.000026
193.900877	2643.503874	1.201134	-0.033158	3.005436
194.348164	2654.545255	1.206139	-0.033244	3.010867
194.658444	2665.539316	1.211143	-0.033305	3.016245
195.093902	2676.561650	1.216148	-0.033390	3.021646
195.633577	2687.558769	1.221153	-0.033494	3.027040
196.252428	2698.594518	1.226158	-0.033613	3.032454
196.502790	2709.613521	1.231162	-0.033662	3.037798
196.953216	2720.630823	1.236167	-0.033750	3.043159
197.546241	2731.655475	1.241172	-0.033864	3.048535
197.993254	2742.668745	1.246177	-0.033950	3.053876
198.533833	2753.660212	1.251181	-0.034054	3.059209
198.979214	2764.708276	1.256186	-0.034141	3.064547
199.321710	2775.727327	1.261191	-0.034208	3.069847
199.849763	2786.735675	1.266195	-0.034309	3.075159
200.211952	2797.764792	1.271200	-0.034380	3.080448
200.728016	2808.776240	1.276205	-0.034480	3.085741
201.293598	2819.783260	1.281210	-0.034589	3.091029
201.572520	2830.819774	1.286214	-0.034644	3.096283
201.933070	2841.810149	1.291219	-0.034714	3.101517
202.525010	2852.848741	1.296224	-0.034828	3.106797
203.128287	2863.836937	1.301228	-0.034944	3.112045
203.561986	2874.892284	1.306233	-0.035028	3.117293
203.918981	2885.906593	1.311238	-0.035098	3.122502
204.355225	2896.915044	1.316243	-0.035182	3.127711
204.672665	2907.939727	1.321247	-0.035244	3.132902
205.003827	2918.968284	1.326252	-0.035309	3.138088
205.559574	2929.961021	1.331257	-0.035416	3.143279
205.894413	2941.000894	1.336262	-0.035482	3.148453
206.126562	2952.001077	1.341266	-0.035528	3.153587
206.348378	2963.050117	1.346271	-0.035573	3.158733
206.929015	2974.005881	1.351276	-0.035684	3.163876
207.522343	2985.076576	1.356280	-0.035798	3.169066
207.867753	2996.054527	1.361285	-0.035866	3.174170
208.276860	3007.108719	1.366290	-0.035945	3.179310
208.583796	3018.094615	1.371295	-0.036006	3.184397
208.984474	3029.143387	1.376299	-0.036084	3.189517
209.313965	3040.137495	1.381304	-0.036148	3.194594
210.038652	3051.162660	1.386309	-0.036287	3.199729
210.489860	3062.169128	1.391314	-0.036374	3.204812
210.825242	3073.220201	1.396318	-0.036440	3.209891
211.342095	3084.175525	1.401323	-0.036540	3.214942
211.960233	3095.229429	1.406328	-0.036658	3.220044
212.482788	3106.218148	1.411332	-0.036759	3.225095
213.004969	3117.273051	1.416337	-0.036860	3.230168
213.228457	3128.276369	1.421342	-0.036904	3.235170
213.512574	3139.307196	1.426347	-0.036960	3.240185
213.654345	3150.326290	1.431351	-0.036990	3.245169
214.171422	3161.338033	1.436356	-0.037090	3.250190
214.603261	3172.325014	1.441361	-0.037173	3.255181
215.221149	3183.361662	1.446366	-0.037292	3.260211
215.538760	3194.385438	1.451370	-0.037354	3.265188
215.998805	3205.402391	1.456375	-0.037443	3.270173
216.372138	3216.408910	1.461380	-0.037516	3.275135
216.958410	3227.417973	1.466384	-0.037629	3.280117
217.418759	3238.441668	1.471389	-0.037718	3.285082
217.929781	3249.481427	1.476394	-0.037817	3.290053
218.086547	3260.494875	1.481399	-0.037849	3.294959
218.319987	3271.522139	1.486403	-0.037895	3.299875
218.527735	3282.494988	1.491408	-0.037937	3.304755
219.302478	3293.531321	1.496413	-0.038085	3.309728
219.350618	3304.571406	1.501417	-0.038097	3.314603
219.813768	3315.560643	1.506422	-0.038186	3.319501
220.084783	3326.581139	1.511427	-0.038240	3.324382
220.729654	3337.589286	1.516432	-0.038364	3.329296
221.127922	3348.622681	1.521436	-0.038441	3.334183
221.647680	3359.612707	1.526441	-0.038541	3.339059
222.045378	3370.624401	1.531446	-0.038619	3.343922
222.509375	3381.700417	1.536451	-0.038709	3.348814
222.792404	3392.668373	1.541455	-0.038764	3.353630
223.325961	3403.692537	1.546460	-0.038867	3.358493
223.841443	3414.711682	1.551465	-0.038967	3.363346
224.380131	3425.737863	1.556469	-0.039071	3.368197
224.351797	3436.770567	1.561474	-0.039068	3.372975
224.743062	3447.761421	1.566479	-0.039144	3.377778
225.089907	3458.774935	1.571484	-0.039212	3.382580
225.630147	3469.787364	1.576488	-0.039316	3.387397
225.951129	3480.816971	1.581493	-0.039379	3.392188
226.242005	3491.848366	1.586498	-0.039436	3.396970
226.510280	3502.836439	1.591503	-0.039489	3.401724
227.068990	3513.870058	1.596507	-0.039597	3.406525
227.395818	3524.852947	1.601512	-0.039661	3.411269
227.954268	3535.895966	1.606517	-0.039768	3.416061
228.372277	3546.902560	1.611521	-0.039850	3.420813
228.766391	3557.940998	1.616526	-0.039926	3.425569
229.101847	3568.926327	1.621531	-0.039992	3.430290
229.519152	3579.963965	1.626536	-0.040073	3.435035
230.086766	3590.966949	1.631540	-0.040182	3.439777
230.613216	3601.998483	1.636545	-0.040284	3.444519
230.770707	3613.033823	1.641550	-0.040316	3.449213
231.088648	3624.043143	1.646555	-0.040378	3.453909
231.349307	3635.040615	1.651559	-0.040430	3.458586
231.840548	3646.058745	1.656564	-0.040525	3.463293
232.191675	3657.068498	1.661569	-0.040594	3.467973
232.525655	3668.088505	1.666573	-0.040659	3.472649
232.786078	3679.117060	1.671578	-0.040711	3.477314
233.179394	3690.120603	1.676583	-0.040787	3.481977
233.607460	3701.149152	1.681588	-0.040870	3.486649
234.144246	3712.139338	1.686592	-0.040974	3.491310
234.416733	3723.177169	1.691597	-0.041027	3.495955
234.763431	3734.193258	1.696602	-0.041095	3.500593
235.165822	3745.194891	1.701606	-0.041173	3.505225
235.635708	3756.202113	1.706611	-0.041264	3.509861
236.019520	3767.245443	1.711616	-0.041339	3.514496
236.493993	3778.253541	1.716621	-0.041431	3.519120
236.816730	3789.283018	1.721625	-0.041494	3.523730
237.313376	3800.302799	1.726630	-0.041590	3.528349
237.414749	3811.291022	1.731635	-0.041612	3.532905
237.829022	3822.321703	1.736640	-0.041692	3.537508
238.164138	3833.337751	1.741644	-0.041758	3.542089
238.550077	3844.346332	1.746649	-0.041833	3.546667
238.757301	3855.361426	1.751654	-0.041875	3.551222
239.213937	3866.391435	1.756658	-0.041963	3.555805
239.641266	3877.377739	1.761663	-0.042046	3.560361
240.137943	3888.414015	1.766668	-0.042142	3.564939
240.389249	3899.416236	1.771673	-0.042192	3.569470
240.698255	3910.450075	1.776677	-0.042252	3.574014
240.887260	3921.461480	1.781682	-0.042291	3.578530
241.223515	3932.491286	1.786687	-0.042356	3.583064
241.630583	3943.485013	1.791692	-0.042436	3.587586
242.038712	3954.501915	1.796696	-0.042515	3.592111
242.414753	3965.524709	1.801701	-0.042588	3.596629
242.927504	3976.515315	1.806706	-0.042687	3.601143
243.241381	3987.560709	1.811710	-0.042749	3.605652
243.893457	3998.566690	1.816715	-0.042874	3.610176
244.174895	4009.568668	1.821720	-0.042929	3.614653
244.621672	4020.612703	1.826725	-0.043016	3.619158
244.840140	4031.618204	1.831729	-0.043060	3.623618
245.111692	4042.645150	1.836734	-0.043113	3.628087
245.316967	4053.659940	1.841739	-0.043155	3.632538
245.880497	4064.646013	1.846744	-0.043263	3.637011
246.312522	4075.658970	1.851748	-0.043347	3.641474
246.634829	4086.719393	1.856753	-0.043410	3.645940
247.041524	4097.719948	1.861758	-0.043489	3.650384
247.334433	4108.775892	1.866762	-0.043547	3.654834
247.772778	4119.768278	1.871767	-0.043632	3.659268
248.316194	4130.826765	1.876772	-0.043736	3.663734
248.534665	4141.829773	1.881777	-0.043780	3.668138
248.850854	4152.837135	1.886781	-0.043842	3.672549
249.206664	4163.863386	1.891786	-0.043912	3.676966
249.543059	4174.866551	1.896791	-0.043978	3.681366
249.906216	4185.880932	1.901795	-0.044048	3.685768
250.178939	4196.907100	1.906800	-0.044102	3.690161
250.542117	4207.905732	1.911805	-0.044173	3.694546
250.803437	4218.944223	1.916810	-0.044225	3.698932
251.109317	4229.942498	1.921814	-0.044285	3.703301
251.667048	4240.968821	1.926819	-0.044392	3.707701
252.036432	4251.973360	1.931824	-0.044465	3.712068
252.455209	4262.998278	1.936829	-0.044546	3.716444
252.847631	4273.998799	1.941833	-0.044622	3.720801
253.119519	4285.027744	1.946838	-0.044676	3.725153
253.363139	4296.023665	1.951843	-0.044724	3.729483
253.766206	4307.054601	1.956847	-0.044803	3.733838
254.161306	4318.055243	1.961852	-0.044880	3.738176
254.443952	4329.106716	1.966857	-0.044935	3.742517
