Wed Nov 23 18:09:14 2022

Number of Points = 2200
Depth (nm)	Load (µN)	Time (s)	Depth (V)	Load (V)
-2.765561	1.407119	0.000000	0.014789	1.016863
0.000000	7.518199	0.005005	0.014269	1.027136
2.089131	16.801946	0.010009	0.013874	1.041443
3.737473	27.592678	0.015014	0.013562	1.057426
5.066622	38.711970	0.020019	0.013310	1.073459
6.342324	49.877781	0.025024	0.013068	1.089291
7.157113	61.113744	0.030028	0.012912	1.104762
7.953809	72.269447	0.035033	0.012760	1.119905
8.575345	83.452774	0.040038	0.012641	1.134798
9.080699	94.606477	0.045043	0.012543	1.149404
9.618665	105.706981	0.050047	0.012440	1.163775
10.186320	116.831845	0.055052	0.012330	1.178014
10.794864	127.911309	0.060057	0.012213	1.192046
11.206679	139.090581	0.065061	0.012133	1.205947
11.561734	150.196522	0.070066	0.012064	1.219576
11.974284	161.276465	0.075071	0.011984	1.233048
12.474446	172.355613	0.080076	0.011887	1.246411
20.389422	181.478757	0.085080	0.010400	1.260511
26.874492	193.510777	0.090085	0.009180	1.277200
27.717564	205.425762	0.095090	0.009019	1.291196
28.476783	216.701314	0.100094	0.008873	1.304285
29.441837	227.756569	0.105099	0.008690	1.317082
30.426481	238.778774	0.110104	0.008502	1.329726
32.017864	249.785400	0.115109	0.008201	1.342475
32.861401	260.958077	0.120113	0.008040	1.354988
34.172286	271.996590	0.125118	0.007791	1.367425
35.138455	283.110630	0.130123	0.007607	1.379696
36.167157	294.188251	0.135128	0.007411	1.391843
37.218142	305.253093	0.140132	0.007211	1.403880
37.986397	316.389031	0.145137	0.007064	1.415782
39.469079	327.284736	0.150142	0.006784	1.427602
40.807474	338.418048	0.155146	0.006530	1.439514
41.761026	349.531399	0.160151	0.006348	1.451166
43.125572	360.550358	0.165156	0.006089	1.462779
43.838827	371.701571	0.170161	0.005953	1.474198
44.689672	382.763330	0.175165	0.005790	1.485489
45.650206	393.796731	0.180170	0.005607	1.496705
46.658746	404.854517	0.185175	0.005415	1.507878
47.794810	415.872984	0.190180	0.005199	1.518975
48.780784	426.970924	0.195184	0.005012	1.530014
49.792619	438.039331	0.200189	0.004819	1.540955
50.835718	449.074410	0.205194	0.004621	1.551798
51.893516	460.127734	0.210198	0.004419	1.562586
52.989046	471.176362	0.215203	0.004211	1.573308
53.863689	482.250381	0.220208	0.004044	1.583908
55.099731	493.279612	0.225213	0.003809	1.594514
55.654346	504.438610	0.230217	0.003703	1.604945
56.700889	515.404472	0.235222	0.003504	1.615293
57.404633	526.515496	0.240227	0.003369	1.625595
58.434342	537.491562	0.245232	0.003173	1.635815
59.135550	548.598781	0.250236	0.003039	1.645984
60.108915	559.600726	0.255241	0.002853	1.656082
60.584618	570.737640	0.260246	0.002761	1.666082
61.632986	581.667972	0.265250	0.002562	1.676019
62.383685	592.790810	0.270255	0.002418	1.685972
63.345219	603.774409	0.275260	0.002235	1.695811
64.360890	614.841918	0.280265	0.002042	1.705681
65.392203	625.868546	0.285269	0.001845	1.715464
66.151857	636.960295	0.290274	0.001700	1.725165
66.940633	647.998238	0.295279	0.001549	1.734774
67.615291	659.045773	0.300283	0.001420	1.744304
68.444406	670.085810	0.305288	0.001262	1.753821
69.046580	681.138242	0.310293	0.001146	1.763230
69.924997	692.167283	0.315298	0.000978	1.772650
70.752964	703.188440	0.320302	0.000820	1.781999
71.678554	714.236051	0.325307	0.000644	1.791348
72.355989	725.289780	0.330312	0.000514	1.800582
73.373480	736.292893	0.335317	0.000320	1.809825
74.049443	747.366761	0.340321	0.000191	1.818980
75.060892	758.372665	0.345326	-0.000002	1.828129
75.754398	769.457174	0.350331	-0.000135	1.837207
76.678394	780.469344	0.355335	-0.000311	1.846245
77.211004	791.545815	0.360340	-0.000413	1.855182
78.164443	802.540222	0.365345	-0.000595	1.864127
78.730271	813.616922	0.370350	-0.000704	1.872987
79.276878	824.655691	0.375354	-0.000809	1.881771
80.177554	835.648169	0.380359	-0.000981	1.890573
80.999413	846.695104	0.385364	-0.001138	1.899355
81.634679	857.747925	0.390369	-0.001260	1.908050
82.147344	868.827949	0.395373	-0.001359	1.916695
82.643947	879.838448	0.400378	-0.001455	1.925242
83.604825	890.824791	0.405383	-0.001638	1.933856
84.130893	901.908774	0.410387	-0.001739	1.942391
84.681514	912.915544	0.415392	-0.001845	1.950837
85.400749	923.967064	0.420397	-0.001983	1.959324
86.211908	934.953651	0.425402	-0.002138	1.967748
86.983822	946.015841	0.430406	-0.002285	1.976183
87.612909	957.047078	0.435411	-0.002406	1.984522
88.195521	968.096723	0.440416	-0.002518	1.992827
88.863847	979.126728	0.445421	-0.002646	2.001106
89.463287	990.150806	0.450425	-0.002761	2.009328
90.444294	1001.148866	0.455430	-0.002948	2.017593
90.981300	1012.245540	0.460435	-0.003052	2.025784
91.874150	1023.218941	0.465439	-0.003222	2.033942
92.365293	1034.301709	0.470444	-0.003317	2.042046
93.218290	1045.314222	0.475449	-0.003480	2.050157
93.935055	1056.326545	0.480454	-0.003617	2.058201
94.800081	1067.357044	0.485458	-0.003782	2.066264
95.361135	1078.414250	0.490463	-0.003890	2.074239
96.204481	1089.426458	0.495468	-0.004051	2.082221
96.815218	1100.486580	0.500472	-0.004168	2.090149
97.543175	1111.491680	0.505477	-0.004308	2.098036
97.991246	1122.540206	0.510482	-0.004394	2.105858
99.394858	1133.464799	0.515487	-0.004661	2.113790
99.902809	1144.605472	0.520491	-0.004759	2.121631
100.621392	1155.626385	0.525496	-0.004896	2.129409
101.026161	1166.675248	0.530501	-0.004975	2.137105
101.611101	1177.702213	0.535506	-0.005087	2.144800
102.028441	1188.702817	0.540510	-0.005168	2.152411
103.053422	1199.711723	0.545515	-0.005363	2.160140
103.409797	1210.792188	0.550520	-0.005433	2.167736
103.922875	1221.813617	0.555524	-0.005532	2.175302
104.360264	1232.834905	0.560529	-0.005617	2.182823
105.304766	1243.812372	0.565534	-0.005797	2.190405
106.130733	1254.839372	0.570539	-0.005954	2.197966
106.697003	1265.915898	0.575543	-0.006063	2.205475
107.396912	1276.915334	0.580548	-0.006198	2.212938
107.871703	1287.983035	0.585553	-0.006289	2.220370
108.428248	1298.982260	0.590558	-0.006397	2.227750
109.057889	1310.016736	0.595562	-0.006517	2.235145
109.593030	1321.025128	0.600567	-0.006621	2.242478
110.210101	1332.075083	0.605572	-0.006739	2.249831
110.552066	1343.139377	0.610576	-0.006806	2.257110
110.987695	1354.135398	0.615581	-0.006890	2.264341
111.724660	1365.093855	0.620586	-0.007031	2.271590
112.477482	1376.178543	0.625591	-0.007175	2.278900
112.963333	1387.178088	0.630595	-0.007269	2.286075
113.705434	1398.223424	0.635600	-0.007411	2.293311
114.335971	1409.239748	0.640605	-0.007532	2.300481
114.922435	1420.249445	0.645610	-0.007645	2.307616
115.609792	1431.289926	0.650614	-0.007777	2.314769
116.386020	1442.301560	0.655619	-0.007925	2.321901
116.723557	1453.382488	0.660624	-0.007991	2.328962
117.131258	1464.386328	0.665628	-0.008071	2.335968
117.942072	1475.370996	0.670633	-0.008225	2.343024
118.414122	1486.437029	0.675638	-0.008317	2.350040
119.098012	1497.411599	0.680643	-0.008448	2.357022
119.635642	1508.490802	0.685647	-0.008551	2.364017
119.997966	1519.521065	0.690652	-0.008622	2.370926
120.284280	1530.550971	0.695657	-0.008679	2.377798
120.689903	1541.551564	0.700661	-0.008757	2.384657
121.579491	1552.524488	0.705666	-0.008927	2.391577
122.189014	1563.583738	0.710671	-0.009044	2.398473
122.821291	1574.613500	0.715676	-0.009165	2.405336
123.389585	1585.641063	0.720680	-0.009275	2.412164
123.923533	1596.681137	0.725685	-0.009378	2.418974
124.459557	1607.647387	0.730690	-0.009481	2.425721
124.834815	1618.751794	0.735695	-0.009554	2.432500
125.364004	1629.726483	0.740699	-0.009656	2.439213
126.148700	1640.711061	0.745704	-0.009806	2.445962
126.552824	1651.795736	0.750709	-0.009885	2.452679
127.456358	1662.763175	0.755713	-0.010057	2.459404
128.091114	1673.795378	0.760718	-0.010179	2.466097
128.942037	1684.828009	0.765723	-0.010341	2.472814
129.242783	1695.898034	0.770728	-0.010400	2.479429
129.611178	1706.912274	0.775732	-0.010472	2.486006
130.277878	1717.913589	0.780737	-0.010600	2.492614
130.892765	1728.918817	0.785742	-0.010718	2.499198
131.528591	1739.951162	0.790747	-0.010840	2.505784
132.176044	1750.975988	0.795751	-0.010964	2.512350
132.439738	1762.034852	0.800756	-0.011017	2.518846
132.932009	1773.023092	0.805761	-0.011112	2.525328
133.452310	1784.060037	0.810765	-0.011212	2.531826
133.948527	1795.064964	0.815770	-0.011308	2.538284
134.469941	1806.085070	0.820775	-0.011409	2.544739
134.970747	1817.129142	0.825780	-0.011505	2.551188
135.529726	1828.131380	0.830784	-0.011613	2.557607
135.945800	1839.160308	0.835789	-0.011694	2.563999
136.555375	1850.187905	0.840794	-0.011811	2.570409
137.015500	1861.272738	0.845799	-0.011900	2.576809
137.401903	1872.243897	0.850803	-0.011975	2.583114
137.758334	1883.242923	0.855808	-0.012045	2.589414
138.169449	1894.282648	0.860813	-0.012125	2.595732
138.702392	1905.269523	0.865817	-0.012227	2.602027
139.250708	1916.318247	0.870822	-0.012333	2.608344
139.911361	1927.305961	0.875827	-0.012460	2.614631
140.210566	1938.368720	0.880832	-0.012518	2.620880
140.421886	1949.412788	0.885836	-0.012561	2.627088
140.848834	1960.397945	0.890841	-0.012644	2.633287
141.398039	1971.388303	0.895846	-0.012749	2.639496
142.123253	1982.427829	0.900850	-0.012888	2.645749
142.568844	1993.474689	0.905855	-0.012975	2.651941
142.843445	2004.491084	0.910860	-0.013029	2.658072
143.397934	2015.486950	0.915865	-0.013136	2.664227
144.005496	2026.508061	0.920869	-0.013252	2.670390
144.744361	2037.506404	0.925874	-0.013394	2.676549
145.237999	2048.559589	0.930879	-0.013489	2.682681
145.779500	2059.551988	0.935884	-0.013593	2.688774
146.021135	2070.594814	0.940888	-0.013641	2.694829
146.435886	2081.587405	0.945893	-0.013722	2.700873
147.180905	2092.601249	0.950898	-0.013865	2.706971
147.660926	2103.645287	0.955902	-0.013957	2.713027
148.076423	2114.659080	0.960907	-0.014038	2.719041
148.680310	2125.667527	0.965912	-0.014154	2.725072
149.237309	2136.701335	0.970917	-0.014261	2.731094
149.703811	2147.711687	0.975921	-0.014352	2.737075
150.279191	2158.725985	0.980926	-0.014462	2.743063
150.824700	2169.744587	0.985931	-0.014567	2.749036
151.233780	2180.789511	0.990936	-0.014647	2.754986
151.785519	2191.795948	0.995940	-0.014753	2.760927
152.043917	2202.822457	1.000945	-0.014804	2.766817
152.648044	2213.835643	1.005950	-0.014920	2.772745
153.028011	2224.853160	1.010954	-0.014994	2.778624
153.633789	2235.862027	1.015959	-0.015111	2.784524
154.014050	2246.907611	1.020964	-0.015185	2.790394
154.361345	2257.919282	1.025969	-0.015253	2.796228
154.851159	2268.955422	1.030973	-0.015347	2.802086
155.413117	2279.935419	1.035978	-0.015456	2.807914
156.027542	2290.975980	1.040983	-0.015574	2.813770
156.308339	2301.991208	1.045988	-0.015629	2.819546
156.735746	2313.031489	1.050992	-0.015712	2.825347
157.143593	2324.031074	1.055997	-0.015791	2.831112
157.713243	2335.037977	1.061002	-0.015901	2.836894
158.113157	2346.089599	1.066006	-0.015979	2.842661
158.401763	2357.101420	1.071011	-0.016035	2.848378
159.111041	2368.072228	1.076016	-0.016171	2.854128
159.761676	2379.115777	1.081021	-0.016296	2.859895
160.473086	2390.115456	1.086025	-0.016432	2.865638
160.936503	2401.192927	1.091030	-0.016522	2.871369
161.300764	2412.173374	1.096035	-0.016593	2.877024
161.726456	2423.219033	1.101039	-0.016676	2.882710
162.062298	2434.227181	1.106044	-0.016741	2.888352
162.393473	2445.260534	1.111049	-0.016806	2.893995
163.120293	2456.230506	1.116054	-0.016945	2.899656
163.591600	2467.273700	1.121058	-0.017037	2.905304
164.066860	2478.285626	1.126063	-0.017128	2.910925
164.306604	2489.362100	1.131068	-0.017176	2.916531
164.706488	2500.313561	1.136073	-0.017254	2.922089
165.235103	2511.353783	1.141077	-0.017356	2.927700
165.855148	2522.371087	1.146082	-0.017475	2.933302
166.190220	2533.386642	1.151087	-0.017541	2.938850
166.677801	2544.400266	1.156091	-0.017635	2.944409
167.082262	2555.453593	1.161096	-0.017713	2.949964
167.563480	2566.428102	1.166101	-0.017806	2.955482
167.875590	2577.483126	1.171106	-0.017868	2.961003
168.358694	2588.481452	1.176110	-0.017961	2.966512
168.703065	2599.527542	1.181115	-0.018028	2.972014
169.049742	2610.500518	1.186120	-0.018096	2.977469
169.365199	2621.540947	1.191125	-0.018158	2.982943
169.874876	2632.555531	1.196129	-0.018257	2.988422
170.217567	2643.585086	1.201134	-0.018324	2.993875
170.644785	2654.596262	1.206139	-0.018406	2.999320
171.026348	2665.630780	1.211143	-0.018481	3.004761
171.430663	2676.621792	1.216148	-0.018559	3.010173
171.765142	2687.648867	1.221153	-0.018625	3.015584
172.202761	2698.653594	1.226158	-0.018710	3.020988
172.897365	2709.667303	1.231162	-0.018843	3.026424
173.252446	2720.709539	1.236167	-0.018912	3.031815
173.584287	2731.730226	1.241172	-0.018977	3.037183
173.848770	2742.735784	1.246177	-0.019029	3.042524
174.481399	2753.742674	1.251181	-0.019151	3.047909
174.799953	2764.775544	1.256186	-0.019213	3.053252
175.178964	2775.808123	1.261191	-0.019287	3.058594
175.346599	2786.810348	1.266195	-0.019321	3.063883
175.831765	2797.821728	1.271200	-0.019415	3.069211
176.281336	2808.836482	1.276205	-0.019502	3.074526
177.028123	2819.850191	1.281210	-0.019645	3.079874
177.401413	2830.878869	1.286214	-0.019718	3.085167
177.779860	2841.915485	1.291219	-0.019792	3.090455
178.058458	2852.917161	1.296224	-0.019847	3.095703
178.498070	2863.943744	1.301228	-0.019932	3.100977
178.936480	2874.921065	1.306233	-0.020017	3.106218
179.344913	2885.968696	1.311238	-0.020096	3.111479
179.639474	2896.984661	1.316243	-0.020154	3.116701
180.020858	2908.016472	1.321247	-0.020228	3.121933
180.323844	2919.031605	1.326252	-0.020288	3.127138
180.781951	2930.039845	1.331257	-0.020377	3.132352
181.266719	2941.042364	1.336262	-0.020470	3.137558
181.762167	2952.068582	1.341266	-0.020566	3.142768
182.127570	2963.100070	1.346271	-0.020637	3.147954
182.333508	2974.120204	1.351276	-0.020679	3.153104
182.441973	2985.146695	1.356280	-0.020702	3.158236
183.073459	2996.117948	1.361285	-0.020823	3.163404
183.574113	3007.164253	1.366290	-0.020920	3.168581
183.868386	3018.172298	1.371295	-0.020978	3.173704
184.219063	3029.202333	1.376299	-0.021046	3.178837
184.483260	3040.212610	1.381304	-0.021099	3.183940
184.814860	3051.238902	1.386309	-0.021163	3.189051
185.063483	3062.270569	1.391314	-0.021213	3.194146
185.400550	3073.246686	1.396318	-0.021279	3.199218
185.930739	3084.281580	1.401323	-0.021381	3.204335
186.161040	3095.313433	1.406328	-0.021427	3.209403
186.676451	3106.307169	1.411332	-0.021526	3.214483
187.029113	3117.326074	1.416337	-0.021595	3.219544
187.375785	3128.352040	1.421342	-0.021663	3.224600
187.658023	3139.368815	1.426347	-0.021719	3.229636
187.984709	3150.390260	1.431351	-0.021783	3.234671
188.344212	3161.405948	1.436356	-0.021853	3.239701
188.744845	3172.409991	1.441361	-0.021931	3.244722
188.999062	3183.442396	1.446366	-0.021981	3.249729
189.542895	3194.441527	1.451370	-0.022086	3.254751
189.765599	3205.467614	1.456375	-0.022131	3.259736
190.113253	3216.488919	1.461380	-0.022199	3.264728
190.645963	3227.493979	1.466384	-0.022301	3.269727
191.082446	3238.518113	1.471389	-0.022386	3.274716
191.514787	3249.518721	1.476394	-0.022470	3.279685
192.030401	3260.546300	1.481399	-0.022569	3.284670
192.407993	3271.575095	1.486403	-0.022643	3.289630
192.945364	3282.575394	1.491408	-0.022746	3.294590
193.249085	3293.604428	1.496413	-0.022806	3.299525
193.531903	3304.624514	1.501417	-0.022862	3.304447
193.947326	3315.629997	1.506422	-0.022943	3.309371
194.290378	3326.650914	1.511427	-0.023010	3.314286
194.513710	3337.674338	1.516432	-0.023054	3.319179
194.925704	3348.678546	1.521436	-0.023134	3.324081
195.181450	3359.715212	1.526441	-0.023185	3.328969
195.572440	3370.717334	1.531446	-0.023261	3.333852
195.863587	3381.729987	1.536451	-0.023318	3.338721
196.428750	3392.728775	1.541455	-0.023427	3.343609
196.816881	3403.779821	1.546460	-0.023503	3.348492
197.274171	3414.767121	1.551465	-0.023591	3.353348
197.686944	3425.791912	1.556469	-0.023672	3.358207
198.205550	3436.827017	1.561474	-0.023772	3.363077
198.400313	3447.819384	1.566479	-0.023811	3.367882
198.736786	3458.861283	1.571484	-0.023877	3.372719
198.934077	3469.878382	1.576488	-0.023916	3.377521
199.246770	3480.876178	1.581493	-0.023978	3.382322
199.571479	3491.908218	1.586498	-0.024042	3.387132
199.857757	3502.926474	1.591503	-0.024098	3.391924
200.100565	3513.946636	1.596507	-0.024146	3.396706
200.368131	3524.940838	1.601512	-0.024199	3.401472
200.670119	3535.973105	1.606517	-0.024259	3.406252
201.011067	3546.973222	1.611521	-0.024325	3.411016
201.447992	3557.997355	1.616526	-0.024410	3.415795
202.114820	3568.994703	1.621531	-0.024538	3.420584
202.505958	3580.022433	1.626536	-0.024614	3.425345
202.951308	3591.045017	1.631540	-0.024700	3.430104
203.251732	3602.080205	1.636545	-0.024759	3.434845
203.675331	3613.085878	1.641550	-0.024842	3.439581
203.903029	3624.081130	1.646555	-0.024887	3.444283
204.506717	3635.121821	1.651559	-0.025003	3.449042
204.648213	3646.132553	1.656564	-0.025032	3.453728
205.024700	3657.151973	1.661569	-0.025106	3.458438
205.166562	3668.161160	1.666573	-0.025135	3.463110
205.546966	3679.177525	1.671578	-0.025209	3.467806
205.733494	3690.184606	1.676583	-0.025247	3.472470
206.192675	3701.216482	1.681588	-0.025336	3.477169
206.415879	3712.228061	1.686592	-0.025380	3.481826
206.712339	3723.243479	1.691597	-0.025439	3.486487
206.878432	3734.251452	1.696602	-0.025473	3.491124
207.360483	3745.269248	1.701606	-0.025566	3.495794
207.832745	3756.258602	1.706611	-0.025657	3.500445
208.319338	3767.312205	1.711616	-0.025751	3.505119
208.522966	3778.314256	1.716621	-0.025792	3.509732
208.669378	3789.362275	1.721625	-0.025822	3.514352
208.900081	3800.355531	1.726630	-0.025868	3.518953
209.490469	3811.359024	1.731635	-0.025982	3.523592
209.895577	3822.399179	1.736640	-0.026061	3.528219
210.014201	3833.415688	1.741644	-0.026086	3.532799
210.155841	3844.416228	1.746649	-0.026115	3.537368
210.523633	3855.404786	1.751654	-0.026187	3.541952
210.634655	3866.478732	1.756658	-0.026210	3.546536
210.849476	3877.470179	1.761663	-0.026253	3.551092
211.288426	3888.456544	1.766668	-0.026338	3.555665
211.851027	3899.476604	1.771673	-0.026447	3.560259
212.241445	3910.518141	1.776677	-0.026523	3.564837
212.543761	3921.518677	1.781682	-0.026582	3.569383
212.907962	3932.529882	1.786687	-0.026653	3.573934
213.536075	3943.550420	1.791692	-0.026774	3.578512
213.779523	3954.588434	1.796696	-0.026822	3.583048
213.996315	3965.603388	1.801701	-0.026865	3.587567
214.265236	3976.584782	1.806706	-0.026919	3.592072
214.603922	3987.624527	1.811710	-0.026985	3.596603
214.955899	3998.620402	1.816715	-0.027054	3.601111
215.535765	4009.648192	1.821720	-0.027165	3.605652
215.771904	4020.668567	1.826725	-0.027212	3.610146
216.092482	4031.679690	1.831729	-0.027275	3.614640
216.171369	4042.706383	1.836734	-0.027293	3.619109
216.380326	4053.728540	1.841739	-0.027335	3.623585
216.705006	4064.723807	1.846744	-0.027398	3.628056
217.223653	4075.747516	1.851748	-0.027498	3.632554
217.465067	4086.750722	1.856753	-0.027546	3.637008
217.751786	4097.799195	1.861758	-0.027603	3.641480
217.939807	4108.847072	1.866762	-0.027641	3.645936
218.329036	4119.834609	1.871767	-0.027717	3.650383
218.801531	4130.853766	1.876772	-0.027808	3.654846
219.021097	4141.884565	1.881777	-0.027852	3.659282
219.396085	4152.897528	1.886781	-0.027925	3.663722
219.849005	4163.916272	1.891786	-0.028013	3.668166
220.168891	4174.949146	1.896791	-0.028076	3.672597
220.639833	4185.943548	1.901795	-0.028167	3.677023
220.888276	4196.948487	1.906800	-0.028216	3.681424
221.133601	4207.992018	1.911805	-0.028265	3.685835
221.206335	4219.002653	1.916810	-0.028281	3.690210
221.574105	4229.998440	1.921814	-0.028353	3.694604
221.769423	4241.032788	1.926819	-0.028392	3.698991
222.027881	4252.063203	1.931824	-0.028443	3.703377
222.226921	4263.065378	1.936829	-0.028483	3.707740
222.338560	4274.085140	1.941833	-0.028507	3.712097
222.533866	4285.089128	1.946838	-0.028547	3.716450
222.958613	4296.082539	1.951843	-0.028629	3.720818
223.170708	4307.129912	1.956847	-0.028671	3.725180
223.464203	4318.126412	1.961852	-0.028729	3.729525
223.614904	4329.164865	1.966857	-0.028760	3.733867
223.797207	4340.173050	1.971862	-0.028797	3.738196
