Wed Nov 23 17:12:02 2022

Number of Points = 2200
Depth (nm)	Load (µN)	Time (s)	Depth (V)	Load (V)
-0.794492	1.271745	0.000000	0.060454	0.875681
0.000000	7.172054	0.005005	0.060304	0.886096
0.872754	15.980413	0.010009	0.060138	0.901228
1.496071	26.479193	0.015014	0.060018	0.918688
2.313651	37.441502	0.020019	0.059862	0.936669
2.875494	48.641554	0.025024	0.059754	0.954532
3.535604	59.804463	0.030028	0.059627	0.972065
4.747696	70.843532	0.035033	0.059397	0.989408
6.416838	81.908031	0.040038	0.059081	1.006737
8.023942	93.077975	0.045043	0.058777	1.023891
9.101975	104.366088	0.050047	0.058572	1.040650
10.385021	115.498050	0.055052	0.058328	1.057030
11.711194	126.650899	0.060057	0.058077	1.073211
12.581883	137.911865	0.065061	0.057911	1.089068
13.175642	149.118565	0.070066	0.057796	1.104487
13.872519	160.256604	0.075071	0.057663	1.119653
15.054133	171.282611	0.080076	0.057438	1.134703
15.759406	182.481077	0.085080	0.057303	1.149551
16.712774	193.578248	0.090085	0.057122	1.164196
17.441582	204.711452	0.095090	0.056982	1.178601
18.195129	215.832577	0.100094	0.056838	1.192827
19.044933	226.942562	0.105099	0.056676	1.206914
20.197562	237.967154	0.110104	0.056457	1.220870
21.747147	248.989365	0.115109	0.056163	1.234838
22.278742	260.278323	0.120113	0.056061	1.248524
23.146630	271.336772	0.125118	0.055895	1.261934
24.024036	282.412490	0.130123	0.055728	1.275227
25.027894	293.487797	0.135128	0.055537	1.288435
26.011558	304.617754	0.140132	0.055349	1.301562
27.012774	315.665720	0.145137	0.055159	1.314473
28.125821	326.739938	0.150142	0.054947	1.327331
28.920058	337.858557	0.155146	0.054795	1.339987
30.474869	348.741737	0.160151	0.054501	1.352568
32.998940	359.721616	0.165156	0.054025	1.365519
34.025442	371.013242	0.170161	0.053829	1.378097
35.257217	382.108539	0.175165	0.053595	1.390432
36.279038	393.204503	0.180170	0.053401	1.402578
37.032558	404.326219	0.185175	0.053257	1.414544
38.038423	415.357739	0.190180	0.053065	1.426411
38.960436	426.437177	0.195184	0.052889	1.438197
39.543993	437.573367	0.200189	0.052777	1.449820
40.586514	448.566105	0.205194	0.052579	1.461372
41.466039	459.632271	0.210198	0.052411	1.472849
42.157920	470.753915	0.215203	0.052278	1.484224
43.015034	481.762080	0.220208	0.052115	1.495458
44.328558	492.767975	0.225213	0.051866	1.506767
45.210992	503.875979	0.230217	0.051697	1.517940
46.058177	514.960517	0.235222	0.051536	1.528996
46.756796	526.039427	0.240227	0.051402	1.539915
47.408165	537.088953	0.245232	0.051277	1.550713
48.237761	548.146118	0.250236	0.051118	1.561503
48.996785	559.194571	0.255241	0.050973	1.572187
49.761430	570.239951	0.260246	0.050827	1.582797
51.770628	581.019675	0.265250	0.050447	1.593503
53.601537	592.193431	0.270255	0.050101	1.604440
54.812921	603.335775	0.275260	0.049871	1.615072
55.680195	614.445543	0.280265	0.049706	1.625492
56.343945	625.529198	0.285269	0.049578	1.635756
57.481605	636.451733	0.290274	0.049362	1.645962
58.984888	647.513183	0.295279	0.049077	1.656345
59.872279	658.607150	0.300283	0.048908	1.666497
61.186600	669.620697	0.305288	0.048659	1.676651
62.022540	680.736738	0.310293	0.048499	1.686683
62.774448	691.799565	0.315298	0.048355	1.696583
63.728967	702.793062	0.320302	0.048173	1.706428
64.761894	713.845055	0.325307	0.047977	1.716290
65.896097	724.865488	0.330312	0.047761	1.726099
66.960471	735.925011	0.335317	0.047559	1.735864
67.795123	746.991750	0.340321	0.047400	1.745511
68.366624	758.103902	0.345326	0.047290	1.755065
69.375888	769.042261	0.350331	0.047097	1.764550
70.442833	780.103847	0.355335	0.046895	1.774104
71.317200	791.158045	0.360340	0.046728	1.783544
72.155740	802.214062	0.365345	0.046568	1.792925
72.927674	813.271462	0.370350	0.046420	1.802239
73.495209	824.334984	0.375354	0.046311	1.811451
74.386564	835.320981	0.380359	0.046141	1.820645
75.401828	846.322448	0.385364	0.045948	1.829840
76.369450	857.394324	0.390369	0.045763	1.839032
76.869740	868.509163	0.395373	0.045667	1.848082
77.479886	879.532048	0.400378	0.045549	1.857044
78.191069	890.526661	0.405383	0.045413	1.865969
79.049855	901.567466	0.410387	0.045249	1.874928
79.755765	912.617677	0.415392	0.045114	1.883809
80.398694	923.660246	0.420397	0.044991	1.892626
81.071227	934.707323	0.425402	0.044862	1.901413
81.806097	945.699194	0.430406	0.044721	1.910133
82.701288	956.733267	0.435411	0.044551	1.918888
83.561059	967.777262	0.440416	0.044387	1.927602
84.325810	978.839624	0.445421	0.044240	1.936264
84.650826	989.915784	0.450425	0.044177	1.944783
85.055782	1000.933902	0.455430	0.044098	1.953241
85.907583	1011.909052	0.460435	0.043935	1.961747
86.783643	1022.941728	0.465439	0.043768	1.970265
87.719764	1033.987807	0.470444	0.043590	1.978772
88.540028	1045.004768	0.475449	0.043433	1.987190
89.368074	1056.074245	0.480454	0.043275	1.995613
89.811083	1067.136889	0.485458	0.043189	2.003898
90.603641	1078.128651	0.490463	0.043038	2.012185
91.525735	1089.146495	0.495468	0.042862	2.020489
92.248544	1100.196026	0.500472	0.042724	2.028732
92.848803	1111.264327	0.505477	0.042608	2.036924
93.483777	1122.266649	0.510482	0.042486	2.045044
94.282635	1133.291198	0.515487	0.042334	2.053188
94.876251	1144.350403	0.520491	0.042220	2.061274
95.537133	1155.362085	0.525496	0.042093	2.069311
96.094838	1166.408168	0.530501	0.041986	2.077316
96.778301	1177.427651	0.535506	0.041855	2.085301
97.391868	1188.458380	0.540510	0.041737	2.093247
98.000212	1199.506682	0.545515	0.041620	2.101174
98.877871	1210.469729	0.550520	0.041452	2.109075
99.682451	1221.532451	0.555524	0.041299	2.116999
100.307809	1232.591792	0.560529	0.041179	2.124847
100.788529	1243.603311	0.565534	0.041086	2.132600
101.572911	1254.625030	0.570539	0.040936	2.140402
102.250799	1265.653284	0.575543	0.040806	2.148156
102.846476	1276.706545	0.580548	0.040691	2.155879
103.499833	1287.707125	0.585553	0.040566	2.163552
104.093895	1298.763215	0.590558	0.040452	2.171222
104.506695	1309.806344	0.595562	0.040372	2.178814
105.091876	1320.815448	0.600567	0.040259	2.186396
105.929240	1331.797658	0.605572	0.040099	2.193991
106.928390	1342.815091	0.610576	0.039909	2.201619
107.684915	1353.866750	0.615581	0.039764	2.209189
108.244779	1364.931584	0.620586	0.039657	2.216698
108.678327	1375.953057	0.625591	0.039572	2.224123
109.341836	1386.973711	0.630595	0.039445	2.231575
110.006729	1397.988811	0.635600	0.039318	2.238998
110.593058	1409.024061	0.640605	0.039205	2.246392
111.115858	1420.072964	0.645610	0.039104	2.253757
111.647448	1431.109585	0.650614	0.039002	2.261092
112.090928	1442.111009	0.655619	0.038916	2.268360
112.705645	1453.117640	0.660624	0.038798	2.275646
113.342855	1464.169721	0.665628	0.038675	2.282942
113.644427	1475.211749	0.670633	0.038616	2.290137
114.075865	1486.217000	0.675638	0.038532	2.297312
114.555948	1497.238723	0.680643	0.038440	2.304487
115.372893	1508.229537	0.685647	0.038284	2.311690
115.878066	1519.298236	0.690652	0.038186	2.318855
116.299010	1530.316880	0.695657	0.038104	2.325947
117.032795	1541.342843	0.700661	0.037964	2.333089
117.566347	1552.360152	0.705666	0.037861	2.340161
118.221157	1563.372660	0.710671	0.037735	2.347234
118.619418	1574.430795	0.715676	0.037658	2.354260
119.292330	1585.417653	0.720680	0.037529	2.361278
119.695687	1596.484900	0.725685	0.037451	2.368269
120.092168	1607.512162	0.730690	0.037373	2.375213
120.580083	1618.499541	0.735695	0.037279	2.382131
121.118835	1629.546053	0.740699	0.037175	2.389076
121.729813	1640.539648	0.745704	0.037058	2.395982
122.183157	1651.601851	0.750709	0.036970	2.402879
122.867424	1662.572851	0.755713	0.036839	2.409746
123.314808	1673.669467	0.760718	0.036752	2.416623
123.755770	1684.638500	0.765723	0.036667	2.423401
124.435312	1695.664156	0.770728	0.036537	2.430242
125.234480	1706.661013	0.775732	0.036384	2.437070
125.729994	1717.750438	0.780737	0.036288	2.443874
126.285055	1728.741336	0.785742	0.036181	2.450611
126.819892	1739.760058	0.790747	0.036078	2.457343
127.378737	1750.799343	0.795751	0.035971	2.464073
128.079558	1761.795036	0.800756	0.035837	2.470786
128.757657	1772.821494	0.805761	0.035707	2.477495
129.139750	1783.887086	0.810765	0.035632	2.484151
129.681078	1794.873074	0.815770	0.035528	2.490773
130.256517	1805.926336	0.820775	0.035417	2.497424
130.894658	1816.922757	0.825780	0.035295	2.504035
131.051201	1827.986431	0.830784	0.035263	2.510576
131.723704	1838.957995	0.835789	0.035134	2.517144
132.133444	1850.015599	0.840794	0.035054	2.523696
132.636078	1861.009248	0.845799	0.034957	2.530210
133.246140	1872.046541	0.850803	0.034840	2.536753
133.768904	1883.063424	0.855808	0.034739	2.543251
134.301163	1894.075677	0.860813	0.034636	2.549732
134.883078	1905.106614	0.865817	0.034524	2.556216
135.282441	1916.156699	0.870822	0.034447	2.562660
135.701238	1927.147356	0.875827	0.034365	2.569057
135.956453	1938.271014	0.880832	0.034315	2.575485
136.358076	1949.194590	0.885836	0.034237	2.581809
136.997561	1960.216886	0.890841	0.034114	2.588217
137.515599	1971.229818	0.895846	0.034014	2.594581
138.343703	1982.215556	0.900850	0.033856	2.600971
138.890914	1993.294162	0.905855	0.033751	2.607347
139.339850	2004.317638	0.910860	0.033664	2.613658
139.728562	2015.332210	0.915865	0.033588	2.619938
140.262774	2026.332757	0.920869	0.033485	2.626221
140.780147	2037.366590	0.925874	0.033385	2.632504
141.133096	2048.393711	0.930879	0.033316	2.638739
141.731620	2059.358690	0.935884	0.033201	2.644968
142.330501	2070.427080	0.940888	0.033086	2.651241
142.509251	2081.447622	0.945893	0.033050	2.657397
143.149546	2092.417576	0.950898	0.032927	2.663592
143.673338	2103.483166	0.955902	0.032826	2.669805
144.180023	2114.490044	0.960907	0.032728	2.675968
144.469073	2125.525613	0.965912	0.032671	2.682095
145.086521	2136.520804	0.970917	0.032553	2.688243
145.514908	2147.553388	0.975921	0.032469	2.694364
146.129265	2158.566486	0.980926	0.032351	2.700492
146.382299	2169.609086	0.985931	0.032301	2.706560
146.866327	2180.635983	0.990936	0.032208	2.712646
147.091550	2191.645083	0.995940	0.032163	2.718664
147.524343	2202.648018	1.000945	0.032079	2.724701
147.929945	2213.708181	1.005950	0.032000	2.730750
148.325138	2224.677912	1.010954	0.031923	2.736736
148.853149	2235.727932	1.015959	0.031821	2.742774
149.245424	2246.741475	1.020964	0.031745	2.748756
149.874385	2257.720369	1.025969	0.031624	2.754746
150.338990	2268.798885	1.030973	0.031534	2.760749
150.875849	2279.772869	1.035978	0.031431	2.766694
151.283840	2290.844938	1.040983	0.031352	2.772658
151.676656	2301.832584	1.045988	0.031275	2.778561
152.113128	2312.845184	1.050992	0.031190	2.784473
152.473100	2323.889669	1.055997	0.031120	2.790375
152.952637	2334.891688	1.061002	0.031027	2.796263
153.703933	2345.896864	1.066006	0.030884	2.802184
153.888283	2356.958918	1.071011	0.030846	2.808030
154.288867	2367.950179	1.076016	0.030769	2.813861
154.815983	2378.969584	1.081021	0.030667	2.819716
155.333026	2389.987552	1.086025	0.030567	2.825556
155.879035	2401.021163	1.091030	0.030462	2.831397
156.179851	2412.035289	1.096035	0.030403	2.837175
156.498332	2423.059546	1.101039	0.030340	2.842951
156.858060	2434.081784	1.106044	0.030270	2.848719
157.236160	2445.100575	1.111049	0.030196	2.854478
157.731705	2456.097325	1.116054	0.030101	2.860231
158.021972	2467.156489	1.121058	0.030044	2.865973
158.257404	2478.180907	1.126063	0.029997	2.871677
158.611812	2489.166515	1.131068	0.029927	2.877368
158.965177	2500.174618	1.136073	0.029858	2.883059
159.703120	2511.191263	1.141077	0.029717	2.888803
160.020864	2522.251906	1.146082	0.029655	2.894493
160.478623	2533.248128	1.151087	0.029566	2.900160
160.772164	2544.259522	1.156091	0.029508	2.905799
161.230534	2555.295185	1.161096	0.029420	2.911464
161.627395	2566.280904	1.166101	0.029342	2.917083
162.214982	2577.308563	1.171106	0.029229	2.922742
162.688451	2588.328650	1.176110	0.029138	2.928369
163.168481	2599.361650	1.181115	0.029045	2.933992
163.605869	2610.349074	1.186120	0.028960	2.939574
164.078113	2621.401539	1.191125	0.028869	2.945184
164.489019	2632.411808	1.196129	0.028789	2.950753
164.668806	2643.464784	1.201134	0.028753	2.956297
165.078699	2654.434958	1.206139	0.028673	2.961825
165.647016	2665.467258	1.211143	0.028564	2.967397
166.154460	2676.480219	1.216148	0.028466	2.972939
166.579665	2687.510208	1.221153	0.028383	2.978467
166.905209	2698.511076	1.226158	0.028319	2.983956
167.321281	2709.566614	1.231162	0.028239	2.989475
167.710331	2720.552269	1.236167	0.028163	2.994945
168.067415	2731.578262	1.241172	0.028093	3.000420
168.421651	2742.595737	1.246177	0.028024	3.005880
169.006249	2753.632508	1.251181	0.027912	3.011374
169.338787	2764.603647	1.256186	0.027846	3.016788
169.667197	2775.658200	1.261191	0.027782	3.022233
170.143896	2786.653894	1.266195	0.027690	3.027661
170.742902	2797.687118	1.271200	0.027575	3.033115
171.027852	2808.706944	1.276205	0.027519	3.038507
171.452372	2819.733877	1.281210	0.027436	3.043913
171.797831	2830.734141	1.286214	0.027369	3.049285
172.224979	2841.769236	1.291219	0.027286	3.054676
172.802630	2852.750834	1.296224	0.027175	3.060054
173.153762	2863.805685	1.301228	0.027106	3.065424
173.458411	2874.831072	1.306233	0.027046	3.070764
173.734839	2885.837478	1.311238	0.026992	3.076082
173.901765	2896.864482	1.316243	0.026957	3.081385
174.409463	2907.862340	1.321247	0.026859	3.086713
174.697363	2918.872319	1.326252	0.026803	3.092006
175.211049	2929.893547	1.331257	0.026704	3.097328
175.559710	2940.919446	1.336262	0.026635	3.102619
176.000351	2951.944554	1.341266	0.026550	3.107913
176.542537	2962.940436	1.346271	0.026446	3.113199
176.827698	2973.987289	1.351276	0.026389	3.118464
177.472314	2984.952948	1.356280	0.026266	3.123732
177.900816	2996.035362	1.361285	0.026183	3.129016
178.340276	3007.000280	1.366290	0.026097	3.134237
178.627111	3018.069454	1.371295	0.026041	3.139477
178.813175	3029.053827	1.376299	0.026003	3.144654
179.236845	3040.094790	1.381304	0.025921	3.149882
179.659268	3051.075372	1.386309	0.025839	3.155073
179.990088	3062.146209	1.391314	0.025774	3.160285
180.444717	3073.081368	1.396318	0.025686	3.165442
180.805519	3084.186573	1.401323	0.025616	3.170657
181.102919	3095.139242	1.406328	0.025557	3.175783
181.594264	3106.186703	1.411332	0.025462	3.180972
181.971751	3117.187393	1.416337	0.025389	3.186115
182.395735	3128.226503	1.421342	0.025306	3.191273
182.586847	3139.237300	1.426347	0.025268	3.196379
183.108700	3150.244950	1.431351	0.025167	3.201519
183.647020	3161.264010	1.436356	0.025063	3.206659
184.048080	3172.289457	1.441361	0.024985	3.211774
184.375196	3183.290966	1.446366	0.024921	3.216861
184.723472	3194.323209	1.451370	0.024853	3.221956
185.177409	3205.320116	1.456375	0.024765	3.227042
185.642515	3216.363109	1.461380	0.024675	3.232141
186.090989	3227.362295	1.466384	0.024588	3.237210
186.531135	3238.378840	1.471389	0.024503	3.242278
186.963074	3249.407872	1.476394	0.024419	3.247343
187.201332	3260.448352	1.481399	0.024372	3.252379
187.670957	3271.406452	1.486403	0.024281	3.257400
188.198982	3282.436349	1.491408	0.024179	3.262454
188.741871	3293.470617	1.496413	0.024075	3.267504
189.123948	3304.499319	1.501417	0.024000	3.272522
189.566502	3315.492574	1.506422	0.023914	3.277524
189.778734	3326.555142	1.511427	0.023872	3.282520
190.126092	3337.534105	1.516432	0.023804	3.287489
190.624940	3348.550209	1.521436	0.023708	3.292486
191.011120	3359.572407	1.526441	0.023633	3.297463
191.167589	3370.614206	1.531446	0.023600	3.302412
191.618114	3381.595916	1.536451	0.023513	3.307365
191.905228	3392.630542	1.541455	0.023457	3.312312
192.325092	3403.630130	1.546460	0.023375	3.317254
192.946166	3414.655536	1.551465	0.023256	3.322225
193.169727	3425.672734	1.556469	0.023211	3.327134
193.494455	3436.701038	1.561474	0.023147	3.332054
193.732655	3447.716027	1.566479	0.023100	3.336950
194.610942	3458.676020	1.571484	0.022933	3.341895
195.102017	3469.741337	1.576488	0.022838	3.346830
195.351154	3480.762533	1.581493	0.022788	3.351708
195.565987	3491.774142	1.586498	0.022745	3.356570
195.921132	3502.802270	1.591503	0.022676	3.361450
196.245166	3513.814867	1.596507	0.022612	3.366312
196.627374	3524.833051	1.601512	0.022538	3.371177
196.937454	3535.829841	1.606517	0.022477	3.376017
197.430938	3546.842806	1.611521	0.022382	3.380879
197.796109	3557.877244	1.616526	0.022310	3.385727
198.047498	3568.905844	1.621531	0.022260	3.390552
198.384629	3579.902644	1.626536	0.022194	3.395367
198.735117	3590.923899	1.631540	0.022126	3.400187
199.196922	3601.927145	1.636545	0.022037	3.405006
199.642320	3612.962570	1.641550	0.021950	3.409829
199.914979	3623.948581	1.646555	0.021896	3.414604
200.523844	3634.986328	1.651559	0.021779	3.419435
200.956536	3645.997111	1.656564	0.021695	3.424226
201.482200	3657.032779	1.661569	0.021594	3.429032
201.660229	3668.038304	1.666573	0.021558	3.433777
201.955689	3679.072568	1.671578	0.021500	3.438541
202.241247	3690.055091	1.676583	0.021443	3.443276
202.578620	3701.114675	1.681588	0.021377	3.448043
202.962114	3712.084907	1.686592	0.021303	3.452770
203.314329	3723.145881	1.691597	0.021234	3.457526
203.411819	3734.131987	1.696602	0.021213	3.462214
203.809847	3745.169276	1.701606	0.021136	3.466952
204.053796	3756.151878	1.706611	0.021087	3.471643
204.532310	3767.171249	1.711616	0.020994	3.476370
204.882739	3778.197000	1.716621	0.020926	3.481078
205.306044	3789.229084	1.721625	0.020844	3.485791
205.468203	3800.223815	1.726630	0.020811	3.490452
205.705572	3811.267617	1.731635	0.020763	3.495135
206.154226	3822.248585	1.736640	0.020677	3.499811
206.449039	3833.300845	1.741644	0.020618	3.504492
206.598937	3844.307311	1.746649	0.020588	3.509131
206.854251	3855.336963	1.751654	0.020537	3.513785
207.258887	3866.340772	1.756658	0.020458	3.518440
207.757429	3877.322752	1.761663	0.020362	3.523090
208.030576	3888.372050	1.766668	0.020308	3.527736
208.136712	3899.396180	1.771673	0.020285	3.532347
208.543643	3910.384647	1.776677	0.020206	3.536970
208.694888	3921.424926	1.781682	0.020175	3.541580
209.046426	3932.399152	1.786687	0.020107	3.546180
209.568099	3943.445047	1.791692	0.020006	3.550822
210.070556	3954.424383	1.796696	0.019909	3.555428
210.670555	3965.463789	1.801701	0.019794	3.560064
210.850032	3976.504611	1.806706	0.019757	3.564647
211.278378	3987.488954	1.811710	0.019674	3.569229
211.765368	3998.506874	1.816715	0.019580	3.573825
212.197985	4009.564674	1.821720	0.019496	3.578426
212.566403	4020.537346	1.826725	0.019424	3.582979
212.699267	4031.592853	1.831729	0.019397	3.587533
212.947298	4042.585956	1.836734	0.019347	3.592069
213.210073	4053.605248	1.841739	0.019295	3.596612
213.652900	4064.583668	1.846744	0.019209	3.601151
213.998574	4075.677241	1.851748	0.019142	3.605722
214.277289	4086.630060	1.856753	0.019087	3.610221
214.540844	4097.683626	1.861758	0.019035	3.614755
214.970478	4108.710902	1.866762	0.018951	3.619290
215.394080	4119.734793	1.871767	0.018869	3.623817
215.772792	4130.752470	1.876772	0.018795	3.628331
216.159027	4141.796850	1.881777	0.018720	3.632851
216.499134	4152.799692	1.886781	0.018654	3.637344
216.689865	4163.803507	1.891786	0.018615	3.641815
216.927069	4174.810262	1.896791	0.018568	3.646287
217.375652	4185.839887	1.901795	0.018481	3.650785
217.583829	4196.842367	1.906800	0.018439	3.655241
217.879354	4207.876548	1.911805	0.018381	3.659714
218.257994	4218.865286	1.916810	0.018307	3.664172
218.513541	4229.904821	1.921814	0.018257	3.668631
218.833705	4240.909863	1.926819	0.018194	3.673078
219.452914	4251.939655	1.931824	0.018075	3.677561
219.874064	4262.940167	1.936829	0.017993	3.682006
220.205786	4273.977790	1.941833	0.017928	3.686450
220.349187	4284.957794	1.946838	0.017898	3.690847
220.677988	4295.997352	1.951843	0.017834	3.695282
221.065636	4306.991144	1.956847	0.017759	3.699699
221.405205	4318.041606	1.961852	0.017692	3.704128
221.624758	4329.032275	1.966857	0.017648	3.708516
221.772257	4340.084847	1.971862	0.017618	3.712915
222.165497	4351.061492	1.976866	0.017541	3.717305
222.552196	4362.079997	1.981871	0.017466	3.721705
222.919749	4373.092352	1.986876	0.017394	3.726095
223.288249	4384.091661	1.991881	0.017322	3.730475
223.651564	4395.129331	1.996885	0.017251	3.734865
223.797981	4406.169015	2.001890	0.017221	3.739228
224.297579	4417.143135	2.006895	0.017125	3.743596
