Wed Nov 23 18:09:14 2022

Number of Points = 2200
Depth (nm)	Load (µN)	Time (s)	Depth (V)	Load (V)
-3.741101	1.968832	0.000000	0.008367	1.035813
0.000000	7.475578	0.005005	0.007664	1.045547
3.933751	16.516002	0.010009	0.006923	1.060199
7.027147	27.352141	0.015014	0.006340	1.076679
9.569884	38.538547	0.020019	0.005860	1.093105
11.146618	49.919532	0.025024	0.005562	1.109073
12.130029	61.221129	0.030028	0.005374	1.124423
12.927198	72.439932	0.035033	0.005222	1.139371
13.560497	83.588779	0.040038	0.005100	1.153959
14.072923	94.749282	0.045043	0.005001	1.168323
14.713970	105.838610	0.050047	0.004878	1.182483
15.327710	116.945621	0.055052	0.004760	1.196483
15.592698	128.125155	0.060057	0.004708	1.210255
15.977806	139.233334	0.065061	0.004633	1.223838
16.351650	150.308044	0.070066	0.004560	1.237228
16.863135	161.373695	0.075071	0.004461	1.250522
17.344872	172.474257	0.080076	0.004368	1.263704
17.673662	183.595700	0.085080	0.004304	1.276709
17.894514	194.703365	0.090085	0.004260	1.289522
18.325639	205.815012	0.095090	0.004176	1.302301
18.645713	216.861177	0.100094	0.004113	1.314836
19.103212	227.921675	0.105099	0.004025	1.327324
19.501245	239.004369	0.110104	0.003947	1.339696
19.847121	250.069872	0.115109	0.003879	1.351915
20.193088	261.160280	0.120113	0.003812	1.364051
20.456596	272.259698	0.125118	0.003760	1.376058
20.790191	283.315792	0.130123	0.003694	1.387942
21.424567	294.326123	0.135128	0.003572	1.399791
21.560306	305.476169	0.140132	0.003544	1.411497
21.809956	316.542319	0.145137	0.003495	1.423063
22.019158	327.577720	0.150142	0.003453	1.434490
22.414018	338.642157	0.155146	0.003376	1.445923
22.918233	349.683899	0.160151	0.003279	1.457284
23.385049	360.749083	0.165156	0.003188	1.468566
23.597943	371.845774	0.170161	0.003145	1.479703
23.952815	382.884054	0.175165	0.003076	1.490749
24.189999	393.974506	0.180170	0.003029	1.501723
24.608980	405.007508	0.185175	0.002948	1.512625
24.786018	416.074966	0.190180	0.002912	1.523398
25.133671	427.121048	0.195184	0.002844	1.534134
25.375739	438.212554	0.200189	0.002795	1.544802
32.877846	446.980743	0.205194	0.001386	1.555658
51.869983	457.872440	0.210198	-0.002181	1.572267
52.494129	471.094744	0.215203	-0.002301	1.584773
52.952312	482.346254	0.220208	-0.002390	1.595313
53.618099	493.430111	0.225213	-0.002518	1.605698
54.288532	504.461420	0.230217	-0.002646	1.615970
55.038022	515.492567	0.235222	-0.002789	1.626202
55.989296	526.516524	0.240227	-0.002971	1.636428
56.794729	537.582530	0.245232	-0.003125	1.646580
57.380628	548.653298	0.250236	-0.003237	1.656606
58.163870	559.698537	0.255241	-0.003387	1.666609
58.761608	570.734159	0.260246	-0.003502	1.676487
59.801836	581.733567	0.265250	-0.003700	1.686412
60.546539	592.823804	0.270255	-0.003842	1.696266
61.213875	603.894431	0.275260	-0.003970	1.706022
61.899479	614.901585	0.280265	-0.004102	1.715674
63.076189	625.888287	0.285269	-0.004325	1.725401
63.673056	637.017869	0.290274	-0.004440	1.735021
64.496074	648.033310	0.295279	-0.004597	1.744559
65.116121	659.094316	0.300283	-0.004716	1.754023
65.897011	670.140942	0.305288	-0.004865	1.763471
66.238344	681.206832	0.310293	-0.004932	1.772756
67.074584	692.218523	0.315298	-0.005092	1.782091
67.775919	703.214193	0.320302	-0.005226	1.791326
68.826831	714.267875	0.325307	-0.005426	1.800659
69.339084	725.334800	0.330312	-0.005525	1.809802
70.284133	736.348159	0.335317	-0.005705	1.818978
70.898677	747.421788	0.340321	-0.005823	1.828063
71.410145	758.483333	0.345326	-0.005922	1.837064
71.807057	769.519662	0.350331	-0.005999	1.845969
72.796664	780.487318	0.355335	-0.006187	1.854940
73.277916	791.586288	0.360340	-0.006280	1.863832
74.027803	802.587179	0.365345	-0.006424	1.872678
74.469420	813.680581	0.370350	-0.006509	1.881470
75.465458	824.619042	0.375354	-0.006699	1.890250
76.130897	835.707842	0.380359	-0.006827	1.899017
76.936719	846.720456	0.385364	-0.006981	1.907723
77.478696	857.805654	0.390369	-0.007085	1.916373
78.107805	868.827768	0.395373	-0.007206	1.924960
78.638041	879.851259	0.400378	-0.007308	1.933483
79.392797	890.883995	0.405383	-0.007452	1.942034
79.947847	901.932367	0.410387	-0.007559	1.950508
80.779243	912.910464	0.415392	-0.007718	1.958963
81.321557	924.003963	0.420397	-0.007822	1.967393
81.890579	935.044080	0.425402	-0.007932	1.975754
82.376329	946.056406	0.430406	-0.008026	1.984038
82.891344	957.088960	0.435411	-0.008125	1.992310
83.881331	968.061716	0.440416	-0.008314	2.000623
84.530970	979.153958	0.445421	-0.008438	2.008903
85.034933	990.211612	0.450425	-0.008536	2.017088
85.631759	1001.219097	0.455430	-0.008650	2.025226
86.106887	1012.267329	0.460435	-0.008742	2.033330
87.937557	1023.070823	0.465439	-0.009088	2.041560
88.677117	1034.315965	0.470444	-0.009230	2.049805
89.711100	1045.299675	0.475449	-0.009427	2.057902
90.445640	1056.378572	0.480454	-0.009567	2.065961
90.984426	1067.404873	0.485458	-0.009671	2.073905
91.688524	1078.441763	0.490463	-0.009806	2.081865
92.357542	1089.475740	0.495468	-0.009934	2.089784
92.885793	1100.501509	0.500472	-0.010036	2.097634
93.634694	1111.518414	0.505477	-0.010179	2.105500
94.255348	1122.557717	0.510482	-0.010299	2.113322
94.943690	1133.568445	0.515487	-0.010430	2.121111
95.372135	1144.637424	0.520491	-0.010514	2.128851
96.189673	1155.629501	0.525496	-0.010670	2.136600
96.749483	1166.678531	0.530501	-0.010777	2.144300
97.234872	1177.698940	0.535506	-0.010871	2.151936
97.980106	1188.718978	0.540510	-0.011014	2.159604
98.699375	1199.744732	0.545515	-0.011152	2.167242
99.327232	1210.782330	0.550520	-0.011272	2.174841
99.905386	1221.821630	0.555524	-0.011383	2.182402
100.292628	1232.871678	0.560529	-0.011459	2.189902
100.918749	1243.860804	0.565534	-0.011579	2.197388
101.382914	1254.922669	0.570539	-0.011669	2.204861
101.963155	1265.912455	0.575543	-0.011780	2.212287
102.732308	1276.929577	0.580548	-0.011927	2.219748
103.434072	1287.959627	0.585553	-0.012062	2.227177
103.980763	1299.008431	0.590558	-0.012167	2.234559
104.655727	1310.007052	0.595562	-0.012296	2.241913
105.528990	1321.040413	0.600567	-0.012463	2.249307
106.208248	1332.094148	0.605572	-0.012593	2.256649
106.490855	1343.131449	0.610576	-0.012649	2.263869
107.127944	1354.122224	0.615581	-0.012771	2.271113
107.589754	1365.181522	0.620586	-0.012861	2.278340
108.384956	1376.149616	0.625591	-0.013013	2.285557
109.039584	1387.211326	0.630595	-0.013138	2.292781
109.672681	1398.227535	0.635600	-0.013260	2.299948
110.062553	1409.269975	0.640605	-0.013336	2.307058
110.836512	1420.289594	0.645610	-0.013484	2.314213
111.464503	1431.274693	0.650614	-0.013604	2.321293
112.109707	1442.336489	0.655619	-0.013728	2.328403
112.499973	1453.390149	0.660624	-0.013804	2.335432
113.090584	1464.391879	0.665628	-0.013917	2.342450
113.677620	1475.408718	0.670633	-0.014030	2.349455
114.025559	1486.474764	0.675638	-0.014098	2.356421
114.573750	1497.450516	0.680643	-0.014204	2.363351
115.133534	1508.482532	0.685647	-0.014312	2.370297
115.576760	1519.543232	0.690652	-0.014398	2.377217
116.121850	1530.515417	0.695657	-0.014503	2.384083
116.907054	1541.519647	0.700661	-0.014653	2.390998
117.689842	1552.561581	0.705666	-0.014802	2.397914
118.135240	1563.631058	0.710671	-0.014889	2.404760
118.771150	1574.609283	0.715676	-0.015011	2.411569
119.243827	1585.663065	0.720680	-0.015102	2.418371
119.690304	1596.678511	0.725685	-0.015189	2.425126
120.243655	1607.704825	0.730690	-0.015295	2.431890
120.684084	1618.732387	0.735695	-0.015380	2.438613
121.128521	1629.757441	0.740699	-0.015467	2.445317
121.611888	1640.768048	0.745704	-0.015560	2.452001
122.147323	1651.791631	0.750709	-0.015663	2.458685
122.785678	1662.793251	0.755713	-0.015786	2.465358
123.157119	1673.874219	0.760718	-0.015858	2.472007
123.843960	1684.845593	0.765723	-0.015990	2.478635
124.526612	1695.859032	0.770728	-0.016121	2.485269
125.027221	1706.909547	0.775732	-0.016217	2.491872
125.692405	1717.930509	0.780737	-0.016345	2.498471
126.075845	1728.956168	0.785742	-0.016419	2.505002
126.640816	1739.987593	0.790747	-0.016528	2.511553
126.923511	1751.016996	0.795751	-0.016584	2.518033
127.260402	1762.038310	0.800756	-0.016650	2.524502
128.085549	1772.989465	0.805761	-0.016807	2.531005
129.075868	1784.026060	0.810765	-0.016996	2.537571
129.617306	1795.066325	0.815770	-0.017100	2.544038
130.236765	1806.104030	0.820775	-0.017219	2.550502
130.691499	1817.127281	0.825780	-0.017307	2.556910
131.079922	1828.188990	0.830784	-0.017383	2.563313
131.571593	1839.151495	0.835789	-0.017478	2.569661
131.807303	1850.290515	0.840794	-0.017525	2.576047
132.441442	1861.197175	0.845799	-0.017647	2.582358
132.816801	1872.254166	0.850803	-0.017720	2.588692
133.251674	1883.251933	0.855808	-0.017804	2.594987
133.725078	1894.296259	0.860813	-0.017896	2.601301
134.139673	1905.308819	0.865817	-0.017976	2.607570
134.694866	1916.308497	0.870822	-0.018083	2.613842
135.061921	1927.343542	0.875827	-0.018155	2.620085
135.422956	1938.380185	0.880832	-0.018225	2.626313
135.854388	1949.389925	0.885836	-0.018309	2.632523
136.429151	1960.394069	0.890841	-0.018419	2.638742
136.961584	1971.427145	0.895846	-0.018522	2.644953
137.669061	1982.427236	0.900850	-0.018658	2.651163
138.213423	1993.468526	0.905855	-0.018762	2.657352
138.882470	2004.468307	0.910860	-0.018891	2.663526
139.271258	2015.514561	0.915865	-0.018966	2.669661
139.840580	2026.523818	0.920869	-0.019076	2.675794
140.234796	2037.563662	0.925874	-0.019153	2.681899
140.660245	2048.556851	0.930879	-0.019235	2.687969
141.092907	2059.570298	0.935884	-0.019319	2.694039
141.644591	2070.588821	0.940888	-0.019425	2.700117
142.191299	2081.585433	0.945893	-0.019531	2.706169
142.670560	2092.658697	0.950898	-0.019623	2.712237
143.197972	2103.621119	0.955902	-0.019725	2.718240
143.745614	2114.658414	0.960907	-0.019830	2.724274
144.251046	2125.688759	0.965912	-0.019928	2.730282
144.697662	2136.717616	0.970917	-0.020015	2.736267
145.110144	2147.725787	0.975921	-0.020095	2.742222
145.593625	2158.743180	0.980926	-0.020188	2.748181
146.089906	2169.774045	0.985931	-0.020284	2.754136
146.519154	2180.779200	0.990936	-0.020367	2.760053
147.211153	2191.776472	0.995940	-0.020500	2.765997
147.743122	2202.851220	1.000945	-0.020602	2.771942
148.339110	2213.821470	1.005950	-0.020717	2.777830
148.734471	2224.880677	1.010954	-0.020794	2.783719
149.039858	2235.893110	1.015959	-0.020854	2.789556
149.503989	2246.897455	1.020964	-0.020944	2.795402
149.955638	2257.928700	1.025969	-0.021031	2.801249
150.399984	2268.963077	1.030973	-0.021117	2.807083
150.911884	2279.973003	1.035978	-0.021216	2.812903
151.132462	2290.984937	1.040983	-0.021260	2.818666
151.743865	2301.991314	1.045988	-0.021378	2.824476
152.176448	2313.045083	1.050992	-0.021462	2.830270
152.425980	2324.032923	1.055997	-0.021511	2.835989
153.001271	2335.069824	1.061002	-0.021622	2.841774
153.627098	2346.079704	1.066006	-0.021742	2.847540
154.020378	2357.090088	1.071011	-0.021818	2.853258
154.314025	2368.128743	1.076016	-0.021876	2.858964
154.794654	2379.131018	1.081021	-0.021969	2.864669
155.237356	2390.160123	1.086025	-0.022055	2.870370
155.630762	2401.193719	1.091030	-0.022132	2.876054
155.927862	2412.196842	1.096035	-0.022190	2.881696
156.345570	2423.234145	1.101039	-0.022271	2.887364
156.683729	2434.240281	1.106044	-0.022337	2.892992
157.306582	2445.237953	1.111049	-0.022457	2.898649
157.681990	2456.267265	1.116054	-0.022530	2.904272
158.083207	2467.311130	1.121058	-0.022608	2.909896
158.575360	2478.298089	1.126063	-0.022703	2.915494
159.127453	2489.321473	1.131068	-0.022809	2.921108
159.784436	2500.312279	1.136073	-0.022935	2.926712
160.530167	2511.347923	1.141077	-0.023078	2.932340
160.828580	2522.370655	1.146082	-0.023137	2.937883
161.243585	2533.417413	1.151087	-0.023217	2.943445
161.484908	2544.430106	1.156091	-0.023265	2.948954
162.015723	2555.423750	1.161096	-0.023368	2.954486
162.653975	2566.435092	1.166101	-0.023490	2.960033
163.335982	2577.474184	1.171106	-0.023621	2.965589
163.376323	2588.533673	1.176110	-0.023631	2.971049
163.668068	2599.526163	1.181115	-0.023689	2.976503
164.136959	2610.509202	1.186120	-0.023779	2.981969
164.680457	2621.535025	1.191125	-0.023884	2.987457
165.228982	2632.534265	1.196129	-0.023990	2.992923
165.496987	2643.609262	1.201134	-0.024043	2.998374
165.935035	2654.599119	1.206139	-0.024128	3.003798
166.152242	2665.654512	1.211143	-0.024171	3.009212
166.452777	2676.644606	1.216148	-0.024230	3.014597
166.912893	2687.648055	1.221153	-0.024319	3.020002
167.519415	2698.649158	1.226158	-0.024436	3.025417
167.916814	2709.729370	1.231162	-0.024513	3.030830
168.119824	2720.707929	1.236167	-0.024554	3.036157
168.539415	2731.736654	1.241172	-0.024636	3.041529
168.825078	2742.738231	1.246177	-0.024692	3.046859
169.619661	2753.741750	1.251181	-0.024844	3.052254
169.868408	2764.792567	1.256186	-0.024893	3.057584
170.206040	2775.803820	1.261191	-0.024959	3.062898
170.523292	2786.823611	1.266195	-0.025021	3.068205
171.232812	2797.797438	1.271200	-0.025157	3.073535
171.794899	2808.842730	1.276205	-0.025265	3.078869
172.345028	2819.867257	1.281210	-0.025371	3.084183
172.719575	2830.898816	1.286214	-0.025444	3.089465
173.111506	2841.907550	1.291219	-0.025521	3.094731
173.402488	2852.907106	1.296224	-0.025578	3.099969
174.088535	2863.948011	1.301228	-0.025710	3.105272
174.617628	2874.955972	1.306233	-0.025812	3.110529
174.977587	2885.970501	1.311238	-0.025882	3.115756
175.200685	2896.994283	1.316243	-0.025926	3.120960
175.694573	2908.005722	1.321247	-0.026022	3.126187
176.113361	2919.022786	1.326252	-0.026103	3.131397
176.573253	2930.037878	1.331257	-0.026192	3.136604
177.012425	2941.063094	1.336262	-0.026277	3.141803
177.287038	2952.094843	1.341266	-0.026331	3.146974
177.473299	2963.097596	1.346271	-0.026369	3.152112
177.970665	2974.113718	1.351276	-0.026465	3.157289
178.348763	2985.133371	1.356280	-0.026539	3.162443
178.709698	2996.166951	1.361285	-0.026609	3.167593
179.260370	3007.145251	1.366290	-0.026715	3.172734
179.390929	3018.218919	1.371295	-0.026743	3.177854
179.900715	3029.180501	1.376299	-0.026841	3.182966
180.395891	3040.210741	1.381304	-0.026937	3.188098
180.845083	3051.227666	1.386309	-0.027024	3.193210
181.485197	3062.246202	1.391314	-0.027147	3.198340
181.640194	3073.280213	1.396318	-0.027178	3.203404
181.933410	3084.291125	1.401323	-0.027236	3.208468
182.339056	3095.308458	1.406328	-0.027315	3.213542
182.898081	3106.299279	1.411332	-0.027423	3.218615
183.450215	3117.312076	1.416337	-0.027529	3.223690
183.992540	3128.369741	1.421342	-0.027633	3.228775
184.197715	3139.381795	1.426347	-0.027675	3.233788
184.618295	3150.389896	1.431351	-0.027756	3.238819
184.982523	3161.390915	1.436356	-0.027827	3.243832
185.479690	3172.429354	1.441361	-0.027923	3.248871
185.862959	3183.431344	1.446366	-0.027998	3.253870
186.147033	3194.465190	1.451370	-0.028054	3.258864
186.485948	3205.459440	1.456375	-0.028120	3.263839
186.876839	3216.507554	1.461380	-0.028196	3.268838
187.423858	3227.485009	1.466384	-0.028302	3.273817
187.945773	3238.524687	1.471389	-0.028402	3.278812
188.119009	3249.547393	1.476394	-0.028438	3.283749
188.550716	3260.575630	1.481399	-0.028521	3.288713
188.637466	3271.573718	1.486403	-0.028540	3.293612
189.185798	3282.580822	1.491408	-0.028646	3.298566
189.995710	3293.552522	1.496413	-0.028801	3.303530
190.530661	3304.622449	1.501417	-0.028904	3.308496
190.712240	3315.657044	1.506422	-0.028941	3.313393
191.100014	3326.663165	1.511427	-0.029016	3.318297
191.628473	3337.649666	1.516432	-0.029118	3.323202
192.186043	3348.699390	1.521436	-0.029225	3.328132
192.527959	3359.685417	1.526441	-0.029292	3.332999
192.900435	3370.749749	1.531446	-0.029365	3.337897
193.007631	3381.728564	1.536451	-0.029388	3.342718
193.397003	3392.774600	1.541455	-0.029463	3.347595
193.667163	3403.763345	1.546460	-0.029517	3.352426
194.117633	3414.796341	1.551465	-0.029604	3.357292
194.683305	3425.794052	1.556469	-0.029713	3.362149
195.007589	3436.823485	1.561474	-0.029777	3.366983
195.171802	3447.847739	1.566479	-0.029810	3.371788
195.539947	3458.865375	1.571484	-0.029882	3.376609
195.983567	3469.849130	1.576488	-0.029968	3.381416
196.384436	3480.890532	1.581493	-0.030046	3.386237
196.538761	3491.921335	1.586498	-0.030078	3.391017
196.997021	3502.912811	1.591503	-0.030166	3.395809
197.238554	3513.933453	1.596507	-0.030214	3.400581
197.819942	3524.950826	1.601512	-0.030326	3.405385
198.218553	3535.960156	1.606517	-0.030404	3.410158
198.642033	3546.996612	1.611521	-0.030486	3.414938
198.938195	3558.001773	1.616526	-0.030544	3.419683
199.378592	3569.014691	1.621531	-0.030629	3.424441
199.600398	3580.041650	1.626536	-0.030674	3.429173
200.064282	3591.055215	1.631540	-0.030764	3.433921
200.425783	3602.064308	1.636545	-0.030834	3.438649
200.858355	3613.067074	1.641550	-0.030918	3.443376
201.289553	3624.115932	1.646555	-0.031002	3.448115
201.691678	3635.122069	1.651559	-0.031080	3.452827
201.980816	3646.120828	1.656564	-0.031137	3.457515
202.409856	3657.159901	1.661569	-0.031220	3.462231
202.691320	3668.162436	1.666573	-0.031276	3.466907
202.999945	3679.178571	1.671578	-0.031336	3.471586
203.126028	3690.216098	1.676583	-0.031363	3.476247
203.771720	3701.193934	1.681588	-0.031487	3.480936
204.091207	3712.224300	1.686592	-0.031549	3.485603
204.540657	3723.252130	1.691597	-0.031636	3.490277
204.751260	3734.267823	1.696602	-0.031679	3.494913
205.171096	3745.278657	1.701606	-0.031760	3.499565
205.468242	3756.286323	1.706611	-0.031818	3.504195
206.043238	3767.320139	1.711616	-0.031929	3.508861
206.280136	3778.327534	1.716621	-0.031976	3.513471
206.855954	3789.339474	1.721625	-0.032087	3.518116
207.138767	3800.343672	1.726630	-0.032143	3.522718
207.453971	3811.378602	1.731635	-0.032205	3.527330
207.675227	3822.408447	1.736640	-0.032249	3.531924
207.981592	3833.413989	1.741644	-0.032309	3.536511
208.340011	3844.413996	1.746649	-0.032379	3.541096
208.656220	3855.445278	1.751654	-0.032441	3.545683
208.858143	3866.439305	1.756658	-0.032482	3.550236
209.257328	3877.476505	1.761663	-0.032559	3.554822
209.537906	3888.480419	1.766668	-0.032615	3.559376
210.175767	3899.481843	1.771673	-0.032737	3.563962
210.478832	3910.535298	1.776677	-0.032797	3.568527
210.768020	3921.545100	1.781682	-0.032854	3.573066
211.101246	3932.535982	1.786687	-0.032919	3.577597
211.602569	3943.548149	1.791692	-0.033016	3.582149
211.914327	3954.574123	1.796696	-0.033077	3.586680
212.528403	3965.583469	1.801701	-0.033195	3.591231
212.657372	3976.621521	1.806706	-0.033222	3.595735
213.040700	3987.628071	1.811710	-0.033297	3.600249
213.193180	3998.658633	1.816715	-0.033328	3.604741
213.846939	4009.639987	1.821720	-0.033453	3.609262
214.210506	4020.649473	1.826725	-0.033524	3.613758
214.706546	4031.705089	1.831729	-0.033620	3.618280
214.804837	4042.703970	1.836734	-0.033641	3.622732
215.237633	4053.723988	1.841739	-0.033725	3.627222
215.454642	4064.711947	1.846744	-0.033769	3.631670
215.992231	4075.753935	1.851748	-0.033872	3.636169
216.247937	4086.761598	1.856753	-0.033923	3.640619
216.597825	4097.832874	1.861758	-0.033991	3.645098
216.871275	4108.839993	1.866762	-0.034045	3.649538
217.275825	4119.860623	1.871767	-0.034124	3.653992
217.610686	4130.863360	1.876772	-0.034190	3.658426
217.990133	4141.895427	1.881777	-0.034264	3.662871
218.238292	4152.919250	1.886781	-0.034313	3.667293
218.541922	4163.909138	1.891786	-0.034373	3.671702
218.783573	4174.949133	1.896791	-0.034421	3.676119
219.283239	4185.935993	1.901795	-0.034517	3.680537
219.611923	4196.980337	1.906800	-0.034582	3.684954
219.884373	4207.986690	1.911805	-0.034635	3.689346
220.109041	4219.002272	1.916810	-0.034680	3.693730
220.481716	4230.014757	1.921814	-0.034753	3.698123
220.877226	4241.029196	1.926819	-0.034830	3.702514
221.380520	4252.044918	1.931824	-0.034927	3.706912
221.705908	4263.045774	1.936829	-0.034991	3.711280
222.181881	4274.079609	1.941833	-0.035083	3.715671
222.418609	4285.067231	1.946838	-0.035130	3.720014
222.656538	4296.139992	1.951843	-0.035177	3.724386
222.810637	4307.125746	1.956847	-0.035209	3.728710
222.929497	4318.140652	1.961852	-0.035234	3.733037
223.158011	4329.167341	1.966857	-0.035280	3.737374
223.659915	4340.162269	1.971862	-0.035377	3.741721
