Wed Nov 23 19:06:18 2022

Number of Points = 2200
Depth (nm)	Load (µN)	Time (s)	Depth (V)	Load (V)
-0.907779	1.814157	0.000000	0.040807	0.940014
0.000000	7.563808	0.005005	0.040635	0.949529
1.039252	16.462779	0.010009	0.040438	0.963860
2.108658	26.978848	0.015014	0.040235	0.980436
2.957709	38.029047	0.020019	0.040073	0.997406
3.453289	49.245855	0.025024	0.039977	1.014143
3.881174	60.421925	0.030028	0.039894	1.030514
4.582461	71.537826	0.035033	0.039760	1.046686
5.212641	82.706410	0.040038	0.039639	1.062648
6.697543	93.532291	0.045043	0.039357	1.078336
11.247197	104.153403	0.050047	0.038501	1.095046
12.795836	115.764623	0.055052	0.038208	1.111348
13.667645	127.151341	0.060057	0.038041	1.126792
15.017871	138.211716	0.065061	0.037785	1.141833
16.619583	149.261414	0.070066	0.037482	1.156781
17.881509	160.489719	0.075071	0.037242	1.171605
19.152103	171.581705	0.080076	0.037001	1.186077
20.053256	182.786244	0.085080	0.036829	1.200346
20.959603	193.916768	0.090085	0.036656	1.214359
21.954096	204.996738	0.095090	0.036467	1.228189
22.931379	216.105475	0.100094	0.036281	1.241892
23.745558	227.232505	0.105099	0.036125	1.255395
24.738373	238.283321	0.110104	0.035936	1.268742
25.751553	249.366762	0.115109	0.035743	1.281995
27.198756	260.392319	0.120113	0.035469	1.295226
28.033634	271.642594	0.125118	0.035310	1.308324
28.832770	282.692578	0.130123	0.035157	1.321053
29.672938	293.766878	0.135128	0.034997	1.333704
30.735463	304.798743	0.140132	0.034795	1.346278
31.728370	315.878558	0.145137	0.034605	1.358759
32.748521	326.959630	0.150142	0.034411	1.371138
33.582783	338.086100	0.155146	0.034252	1.383382
34.514131	349.114425	0.160151	0.034075	1.395451
35.502442	360.199519	0.165156	0.033886	1.407498
36.495509	371.256578	0.170161	0.033697	1.419414
37.297975	382.344882	0.175165	0.033544	1.431192
38.627076	393.347877	0.180170	0.033292	1.442980
39.268581	404.523267	0.185175	0.033169	1.454596
40.147440	415.561714	0.190180	0.033001	1.466067
40.937677	426.608456	0.195184	0.032850	1.477425
41.830913	437.686341	0.200189	0.032680	1.488763
42.600640	448.731085	0.205194	0.032533	1.499939
43.528944	459.810996	0.210198	0.032356	1.511122
44.463916	470.831270	0.215203	0.032177	1.522167
45.634713	481.868993	0.220208	0.031955	1.533230
46.313380	493.016474	0.225213	0.031825	1.544149
46.944414	504.069543	0.230217	0.031704	1.554885
47.850021	515.071364	0.235222	0.031531	1.565592
49.090947	526.078048	0.240227	0.031296	1.576342
49.649081	537.242559	0.245232	0.031188	1.586939
50.612542	548.216883	0.250236	0.031005	1.597423
51.326460	559.325048	0.255241	0.030868	1.607879
52.208564	570.357536	0.260246	0.030700	1.618254
52.833118	581.425633	0.265250	0.030580	1.628510
53.782401	592.427119	0.270255	0.030399	1.638747
54.575846	603.514796	0.275260	0.030247	1.648946
55.119561	614.593461	0.280265	0.030142	1.658996
55.907266	625.588571	0.285269	0.029992	1.668988
57.279722	636.568080	0.290274	0.029732	1.679088
57.776158	647.737526	0.295279	0.029636	1.689022
58.443715	658.762855	0.300283	0.029508	1.698825
59.031930	669.817617	0.305288	0.029395	1.708573
59.823846	680.822738	0.310293	0.029243	1.718284
60.601968	691.869351	0.315298	0.029095	1.727972
61.531339	702.908455	0.320302	0.028917	1.737644
62.323802	713.952742	0.325307	0.028766	1.747225
62.988923	725.032112	0.330312	0.028638	1.756746
63.933601	736.006817	0.335317	0.028458	1.766210
64.912659	747.070775	0.340321	0.028272	1.775708
65.279986	758.195557	0.345326	0.028200	1.785026
66.045264	769.164018	0.350331	0.028054	1.794283
66.571759	780.239932	0.355335	0.027953	1.803511
67.030295	791.307355	0.360340	0.027864	1.812666
67.911018	802.263276	0.365345	0.027696	1.821804
68.819827	813.301031	0.370350	0.027522	1.830970
69.552100	824.379557	0.375354	0.027382	1.840073
70.185184	835.415856	0.380359	0.027261	1.849069
71.333032	846.389578	0.385364	0.027043	1.858114
72.168860	857.472044	0.390369	0.026883	1.867115
72.986427	868.513018	0.395373	0.026727	1.876035
73.769436	879.530661	0.400378	0.026577	1.884885
74.522318	890.594136	0.405383	0.026433	1.893720
75.401513	901.615285	0.410387	0.026266	1.902516
75.881319	912.709043	0.415392	0.026173	1.911219
76.484092	923.724123	0.420397	0.026057	1.919855
77.102951	934.753735	0.425402	0.025938	1.928468
77.880151	945.770512	0.430406	0.025790	1.937074
78.566235	956.793110	0.435411	0.025658	1.945622
79.311062	967.844318	0.440416	0.025516	1.954169
79.846934	978.886217	0.445421	0.025412	1.962617
80.556679	989.916560	0.450425	0.025276	1.971066
81.267681	1000.939749	0.455430	0.025140	1.979473
81.838493	1011.982408	0.460435	0.025030	1.987822
82.329861	1023.051890	0.465439	0.024936	1.996136
82.873551	1034.070281	0.470444	0.024831	2.004391
83.650460	1045.081185	0.475449	0.024682	2.012666
84.196687	1056.137200	0.480454	0.024577	2.020881
84.834324	1067.150530	0.485458	0.024455	2.029054
85.686063	1078.153756	0.490463	0.024292	2.037240
86.280702	1089.245005	0.495468	0.024178	2.045393
87.038530	1100.215476	0.500472	0.024033	2.053467
87.462631	1111.323525	0.505477	0.023951	2.061526
87.817039	1122.329163	0.510482	0.023881	2.069463
88.625223	1133.319454	0.515487	0.023727	2.077468
89.429905	1144.363754	0.520491	0.023573	2.085480
90.095928	1155.399166	0.525496	0.023446	2.093422
90.567660	1166.454982	0.530501	0.023354	2.101301
91.244821	1177.452812	0.535506	0.023225	2.109159
91.816774	1188.507684	0.540510	0.023114	2.117002
92.084481	1199.562037	0.545515	0.023061	2.124743
92.904994	1210.509086	0.550520	0.022905	2.132513
93.392321	1221.606669	0.555524	0.022811	2.140279
93.934641	1232.609144	0.560529	0.022706	2.147965
94.773586	1243.624327	0.565534	0.022546	2.155700
95.157877	1254.689535	0.570539	0.022471	2.163337
95.608278	1265.706386	0.575543	0.022384	2.170929
96.069455	1276.742131	0.580548	0.022295	2.178510
96.912843	1287.710237	0.585553	0.022134	2.186106
97.470360	1298.790581	0.590558	0.022026	2.193685
98.131424	1309.791806	0.595562	0.021900	2.201209
98.498877	1320.870193	0.600567	0.021828	2.208692
98.978562	1331.878555	0.605572	0.021735	2.216129
99.505161	1342.885154	0.610576	0.021634	2.223549
100.261082	1353.882135	0.615581	0.021489	2.230990
100.860138	1364.946117	0.620586	0.021374	2.238414
101.425740	1375.977702	0.625591	0.021265	2.245786
101.899385	1387.012156	0.630595	0.021173	2.253115
102.470654	1398.043216	0.635600	0.021063	2.260439
102.939803	1409.037299	0.640605	0.020973	2.267692
103.832984	1420.038146	0.645610	0.020802	2.275019
104.581055	1431.083822	0.650614	0.020659	2.282320
105.096124	1442.129871	0.655619	0.020560	2.289547
105.758637	1453.126461	0.660624	0.020433	2.296751
106.449558	1464.178026	0.665628	0.020301	2.303973
107.023433	1475.184605	0.670633	0.020190	2.311119
107.658349	1486.231439	0.675638	0.020068	2.318282
108.082814	1497.270806	0.680643	0.019986	2.325373
108.434378	1508.303761	0.685647	0.019917	2.332423
108.870514	1519.324497	0.690652	0.019833	2.339461
109.087895	1530.355671	0.695657	0.019789	2.346439
109.767625	1541.327453	0.700661	0.019659	2.353456
110.313160	1552.386253	0.705666	0.019554	2.360477
110.696630	1563.413003	0.710671	0.019479	2.367425
111.040117	1574.469612	0.715676	0.019412	2.374362
111.486633	1585.425616	0.720680	0.019325	2.381238
112.500921	1596.418304	0.725685	0.019132	2.388232
112.988918	1607.525118	0.730690	0.019038	2.395168
113.567820	1618.524938	0.735695	0.018927	2.402037
113.914895	1629.565759	0.740699	0.018859	2.408865
114.508324	1640.569992	0.745704	0.018745	2.415701
115.237211	1651.554095	0.750709	0.018605	2.422531
115.934832	1662.606594	0.755713	0.018472	2.429378
116.676886	1673.605991	0.760718	0.018330	2.436182
117.171784	1684.689758	0.765723	0.018234	2.442968
117.421094	1695.708359	0.770728	0.018185	2.449649
117.945662	1706.717125	0.775732	0.018083	2.456359
118.377867	1717.732383	0.780737	0.018000	2.463036
119.120356	1728.737876	0.785742	0.017857	2.469750
119.625321	1739.796507	0.790747	0.017760	2.476430
120.052825	1750.808578	0.795751	0.017677	2.483050
120.468771	1761.836482	0.800756	0.017596	2.489660
120.970430	1772.860060	0.805761	0.017499	2.496266
121.391866	1783.879674	0.810765	0.017418	2.502836
121.934674	1794.876661	0.815770	0.017313	2.509399
122.273929	1805.947946	0.820775	0.017247	2.515949
122.742395	1816.937934	0.825780	0.017156	2.522460
122.959898	1828.004775	0.830784	0.017112	2.528950
123.534349	1838.968687	0.835789	0.017002	2.535432
124.100294	1849.986060	0.840794	0.016893	2.541926
124.595428	1861.048540	0.845799	0.016797	2.548416
125.059332	1872.042171	0.850803	0.016708	2.554844
125.541203	1883.083612	0.855808	0.016614	2.561287
126.148174	1894.074819	0.860813	0.016498	2.567707
126.892763	1905.153273	0.865817	0.016355	2.574187
127.103685	1916.183312	0.870822	0.016313	2.580524
127.661024	1927.147250	0.875827	0.016206	2.586872
127.932114	1938.199463	0.880832	0.016152	2.593202
128.519675	1949.202605	0.885836	0.016039	2.599546
128.894512	1960.216504	0.890841	0.015966	2.605842
129.275906	1971.265154	0.895846	0.015892	2.612143
129.884894	1982.249566	0.900850	0.015775	2.618434
130.341858	1993.287003	0.905855	0.015686	2.624713
130.885405	2004.280297	0.910860	0.015582	2.630966
131.483597	2015.344305	0.915865	0.015467	2.637254
131.800769	2026.375407	0.920869	0.015404	2.643459
132.304780	2037.359556	0.925874	0.015307	2.649656
132.654779	2048.405880	0.930879	0.015239	2.655846
133.026828	2059.390672	0.935884	0.015166	2.661991
133.505769	2070.405869	0.940888	0.015074	2.668157
134.069907	2081.422975	0.945893	0.014965	2.674325
134.609122	2092.429240	0.950898	0.014861	2.680468
134.991790	2103.503095	0.955902	0.014787	2.686607
135.226290	2114.524583	0.960907	0.014740	2.692677
135.708861	2125.497933	0.965912	0.014647	2.698751
136.153141	2136.528819	0.970917	0.014560	2.704835
136.644628	2147.566764	0.975921	0.014466	2.710917
137.174322	2158.562743	0.980926	0.014363	2.716969
137.587966	2169.596816	0.985931	0.014283	2.723009
138.095436	2180.609581	0.990936	0.014185	2.729039
138.393434	2191.670901	0.995940	0.014126	2.735047
138.851221	2202.626436	1.000945	0.014038	2.741012
139.591711	2213.663935	1.005950	0.013896	2.747054
140.199583	2224.671324	1.010954	0.013779	2.753046
140.798675	2235.703289	1.015959	0.013664	2.759035
141.086858	2246.755273	1.020964	0.013607	2.764970
141.431252	2257.779680	1.025969	0.013540	2.770888
141.845211	2268.766269	1.030973	0.013460	2.776783
142.241217	2279.809500	1.035978	0.013383	2.782694
142.694578	2290.799039	1.040983	0.013295	2.788572
143.128369	2301.848680	1.045988	0.013211	2.794467
143.419273	2312.853793	1.050992	0.013153	2.800302
144.061783	2323.858548	1.055997	0.013030	2.806183
144.473248	2334.908895	1.061002	0.012950	2.812037
145.100802	2345.899503	1.066006	0.012830	2.817882
145.427488	2356.931578	1.071011	0.012766	2.823689
145.838132	2367.963732	1.076016	0.012686	2.829497
146.281579	2378.969781	1.081021	0.012600	2.835284
146.798908	2389.998302	1.086025	0.012500	2.841083
147.139410	2401.011621	1.091030	0.012434	2.846834
147.831771	2412.015805	1.096035	0.012301	2.852625
148.116157	2423.039291	1.101039	0.012245	2.858349
148.659017	2434.071160	1.106044	0.012140	2.864106
148.993567	2445.107833	1.111049	0.012075	2.869822
149.750575	2456.068608	1.116054	0.011930	2.875554
150.201281	2467.135348	1.121058	0.011843	2.881280
150.628312	2478.155320	1.126063	0.011760	2.886967
151.059146	2489.170576	1.131068	0.011676	2.892641
151.494196	2500.181456	1.136073	0.011592	2.898302
151.856134	2511.183771	1.141077	0.011521	2.903936
152.634431	2522.216302	1.146082	0.011372	2.909639
152.838083	2533.239837	1.151087	0.011332	2.915237
153.324704	2544.271504	1.156091	0.011237	2.920873
153.816529	2555.265686	1.161096	0.011142	2.926479
154.202587	2566.306935	1.166101	0.011067	2.932082
154.467785	2577.312416	1.171106	0.011015	2.937637
154.880976	2588.330227	1.176110	0.010935	2.943211
155.468395	2599.342081	1.181115	0.010822	2.948797
155.844416	2610.379522	1.186120	0.010748	2.954354
155.952060	2621.412829	1.191125	0.010725	2.959857
156.449342	2632.393955	1.196129	0.010629	2.965383
156.846193	2643.446746	1.201134	0.010552	2.970919
157.508063	2654.418902	1.206139	0.010425	2.976445
158.008598	2665.441369	1.211143	0.010329	2.981960
158.374503	2676.496319	1.216148	0.010257	2.987462
158.835554	2687.489969	1.221153	0.010168	2.992937
159.178488	2698.532256	1.226158	0.010101	2.998408
159.783058	2709.500328	1.231162	0.009985	3.003871
160.467886	2720.554342	1.236167	0.009853	3.009379
160.727910	2731.559981	1.241172	0.009802	3.014790
161.141736	2742.613861	1.246177	0.009722	3.020237
161.276823	2753.624721	1.251181	0.009694	3.025613
161.768253	2764.647564	1.256186	0.009599	3.031037
162.269289	2775.620774	1.261191	0.009502	3.036428
162.569270	2786.676158	1.266195	0.009443	3.041820
162.969777	2797.677440	1.271200	0.009365	3.047191
163.349766	2808.712483	1.276205	0.009291	3.052566
163.649653	2819.701703	1.281210	0.009232	3.057898
164.425121	2830.696111	1.286214	0.009084	3.063291
165.032030	2841.753144	1.291219	0.008967	3.068680
165.627612	2852.750757	1.296224	0.008853	3.074030
166.152077	2863.786711	1.301228	0.008751	3.079378
166.533931	2874.807494	1.306233	0.008677	3.084689
166.932269	2885.826394	1.311238	0.008600	3.089993
167.208726	2896.857413	1.316243	0.008545	3.095276
167.635309	2907.849946	1.321247	0.008462	3.100553
168.064325	2918.887990	1.326252	0.008379	3.105843
168.587460	2929.892389	1.331257	0.008278	3.111120
168.943595	2940.916387	1.336262	0.008209	3.116375
169.308828	2951.916917	1.341266	0.008137	3.121611
169.811603	2962.950881	1.346271	0.008040	3.126873
170.204891	2973.960387	1.351276	0.007964	3.132099
170.741279	2984.975918	1.356280	0.007860	3.137339
171.009473	2996.006510	1.361285	0.007807	3.142540
171.584692	3007.016986	1.366290	0.007697	3.147765
171.948596	3018.029344	1.371295	0.007626	3.152954
172.387050	3029.047100	1.376299	0.007541	3.158146
172.953166	3040.045406	1.381304	0.007432	3.163339
173.387860	3051.122356	1.386309	0.007347	3.168541
173.564272	3062.097296	1.391314	0.007312	3.173652
174.143743	3073.101402	1.396318	0.007200	3.178823
174.637575	3084.130753	1.401323	0.007105	3.183986
175.181863	3095.159083	1.406328	0.007000	3.189146
175.431697	3106.174182	1.411332	0.006950	3.194252
175.833404	3117.201740	1.416337	0.006872	3.199377
176.193229	3128.211919	1.421342	0.006802	3.204479
176.694610	3139.231661	1.426347	0.006705	3.209596
176.822262	3150.233115	1.431351	0.006678	3.214647
177.463669	3161.253647	1.436356	0.006555	3.219767
177.956648	3172.249714	1.441361	0.006460	3.224848
178.537743	3183.311569	1.446366	0.006348	3.229962
178.551117	3194.337688	1.451370	0.006343	3.234977
178.922192	3205.321086	1.456375	0.006271	3.240012
179.222436	3216.335473	1.461380	0.006212	3.245044
179.776050	3227.366795	1.466384	0.006105	3.250108
180.120737	3238.370199	1.471389	0.006038	3.255125
180.341793	3249.421614	1.476394	0.005993	3.260139
180.664408	3260.413253	1.481399	0.005930	3.265132
180.996457	3271.429065	1.486403	0.005865	3.270130
181.419388	3282.443677	1.491408	0.005783	3.275131
181.793747	3293.485277	1.496413	0.005710	3.280130
182.141822	3304.465779	1.501417	0.005642	3.285090
182.577697	3315.521318	1.506422	0.005558	3.290088
183.107063	3326.480624	1.511427	0.005455	3.295047
183.583978	3337.551149	1.516432	0.005363	3.300041
184.042103	3348.511574	1.521436	0.005275	3.304976
184.539067	3359.568500	1.526441	0.005179	3.309952
184.910339	3370.587446	1.531446	0.005106	3.314887
185.404853	3381.592417	1.536451	0.005011	3.319824
185.507116	3392.625246	1.541455	0.004989	3.324717
185.969332	3403.635370	1.546460	0.004899	3.329638
186.421696	3414.619688	1.551465	0.004812	3.334538
186.956445	3425.683162	1.556469	0.004709	3.339477
187.198277	3436.677202	1.561474	0.004661	3.344341
187.689917	3447.705918	1.566479	0.004566	3.349244
187.912561	3458.718106	1.571484	0.004521	3.354099
188.285974	3469.737539	1.576488	0.004448	3.358969
188.461218	3480.750486	1.581493	0.004413	3.363805
188.834474	3491.788198	1.586498	0.004340	3.368669
189.298492	3502.747206	1.591503	0.004250	3.373502
189.909338	3513.791733	1.596507	0.004133	3.378384
190.295710	3524.806487	1.601512	0.004058	3.383218
190.758275	3535.846992	1.606517	0.003968	3.388065
190.884857	3546.831934	1.611521	0.003942	3.392841
191.423973	3557.868802	1.616526	0.003838	3.397682
191.646438	3568.888874	1.621531	0.003793	3.402471
192.160689	3579.892544	1.626536	0.003694	3.407281
192.270911	3590.920422	1.631540	0.003671	3.412046
192.586010	3601.936570	1.636545	0.003609	3.416824
193.085671	3612.914943	1.641550	0.003512	3.421601
193.537180	3623.998239	1.646555	0.003425	3.426411
193.825179	3634.967920	1.651559	0.003368	3.431145
194.120555	3646.006476	1.656564	0.003310	3.435904
194.461164	3656.997641	1.661569	0.003243	3.440640
195.055371	3668.030042	1.666573	0.003129	3.445418
195.458024	3679.047676	1.671578	0.003051	3.450160
195.890298	3690.049915	1.676583	0.002967	3.454892
196.276093	3701.087821	1.681588	0.002892	3.459628
196.478354	3712.104168	1.686592	0.002851	3.464326
196.777497	3723.134804	1.691597	0.002792	3.469035
197.131414	3734.120621	1.696602	0.002723	3.473725
197.497981	3745.149194	1.701606	0.002652	3.478429
197.718366	3756.169487	1.706611	0.002607	3.483105
198.118781	3767.168799	1.711616	0.002530	3.487787
198.354992	3778.194083	1.716621	0.002483	3.492455
198.514488	3789.214446	1.721625	0.002450	3.497105
198.806573	3800.215633	1.726630	0.002392	3.501757
199.374645	3811.239112	1.731635	0.002283	3.506443
199.802428	3822.253439	1.736640	0.002200	3.511103
200.117584	3833.273127	1.741644	0.002138	3.515746
200.515699	3844.269391	1.746649	0.002061	3.520382
200.770969	3855.321599	1.751654	0.002010	3.525020
201.430469	3866.311847	1.756658	0.001884	3.529671
201.773649	3877.336901	1.761663	0.001817	3.534295
202.254084	3888.350804	1.766668	0.001724	3.538923
202.535881	3899.368565	1.771673	0.001668	3.543525
203.237965	3910.373241	1.776677	0.001534	3.548162
203.426349	3921.387484	1.781682	0.001495	3.552739
203.870821	3932.412790	1.786687	0.001409	3.557344
204.296026	3943.415587	1.791692	0.001327	3.561931
204.795556	3954.444029	1.796696	0.001230	3.566531
204.806855	3965.464397	1.801701	0.001226	3.571067
205.231831	3976.485684	1.806706	0.001143	3.575644
205.567244	3987.478551	1.811710	0.001077	3.580194
206.019511	3998.504669	1.816715	0.000990	3.584764
206.443209	4009.524693	1.821720	0.000908	3.589322
206.888580	4020.531159	1.826725	0.000821	3.593872
207.586489	4031.536497	1.831729	0.000688	3.598442
208.001780	4042.605882	1.836734	0.000607	3.603002
208.299352	4053.592992	1.841739	0.000548	3.607510
208.816348	4064.605531	1.846744	0.000449	3.612046
208.916867	4075.624823	1.851748	0.000427	3.616534
209.281372	4086.625433	1.856753	0.000356	3.621038
209.545032	4097.697681	1.861758	0.000304	3.625554
209.865493	4108.708710	1.866762	0.000241	3.630046
210.043717	4119.738907	1.871767	0.000205	3.634524
210.273649	4130.755257	1.876772	0.000159	3.638997
210.391620	4141.771599	1.881777	0.000134	3.643452
210.861337	4152.780739	1.886781	0.000043	3.647937
211.131452	4163.798281	1.891786	-0.000010	3.652398
211.649412	4174.786749	1.896791	-0.000110	3.656868
211.821131	4185.840599	1.901795	-0.000145	3.661322
212.191748	4196.838601	1.906800	-0.000217	3.665769
212.480825	4207.863911	1.911805	-0.000274	3.670214
212.935049	4218.852464	1.916810	-0.000362	3.674655
213.350432	4229.893061	1.921814	-0.000443	3.679108
213.695602	4240.910186	1.926819	-0.000511	3.683538
213.942424	4251.947008	1.931824	-0.000560	3.687961
214.238468	4262.923199	1.936829	-0.000618	3.692359
214.501185	4273.956811	1.941833	-0.000670	3.696771
214.974440	4284.946574	1.946838	-0.000761	3.701183
215.121516	4295.992286	1.951843	-0.000792	3.705577
215.584429	4306.980891	1.956847	-0.000881	3.709976
215.732631	4318.024469	1.961852	-0.000912	3.714360
216.176678	4329.017061	1.966857	-0.000998	3.718748
216.650240	4340.043083	1.971862	-0.001089	3.723147
216.948198	4351.070988	1.976866	-0.001148	3.727524
217.355086	4362.068056	1.981871	-0.001227	3.731894
217.822473	4373.092129	1.986876	-0.001318	3.736276
218.279171	4384.084588	1.991881	-0.001406	3.740640
218.834158	4395.114303	1.996885	-0.001513	3.745022
218.962366	4406.146994	2.001890	-0.001540	3.749358
219.422202	4417.143136	2.006895	-0.001629	3.753707
