Wed Nov 23 18:09:14 2022

Number of Points = 2200
Depth (nm)	Load (µN)	Time (s)	Depth (V)	Load (V)
-1.325254	1.341689	0.000000	0.037543	0.949379
0.000000	7.496940	0.005005	0.037293	0.959659
1.323331	16.528699	0.010009	0.037042	0.974195
2.616171	27.133635	0.015014	0.036797	0.990847
3.559766	38.209251	0.020019	0.036617	1.007722
4.714281	49.301991	0.025024	0.036398	1.024455
5.332513	60.580469	0.030028	0.036279	1.040901
6.064330	71.738237	0.035033	0.036139	1.056980
6.768603	82.896527	0.040038	0.036004	1.072805
7.483046	94.040632	0.045043	0.035867	1.088385
8.187796	105.182154	0.050047	0.035732	1.103736
8.629464	116.374004	0.055052	0.035646	1.118814
9.495017	127.419210	0.060057	0.035481	1.133704
10.252250	138.555184	0.065061	0.035336	1.148466
11.745643	149.369056	0.070066	0.035053	1.162974
22.025246	158.872146	0.075071	0.033122	1.179699
23.105378	171.476047	0.080076	0.032916	1.195845
24.125933	182.900504	0.085080	0.032722	1.210312
25.183076	194.061751	0.090085	0.032521	1.224307
26.730352	205.070024	0.095090	0.032228	1.238173
28.049991	216.210177	0.100094	0.031978	1.251943
29.060767	227.372008	0.105099	0.031785	1.265456
30.185899	238.439596	0.110104	0.031571	1.278764
31.180998	249.582504	0.115109	0.031382	1.291967
32.277670	260.684237	0.120113	0.031173	1.305030
33.107395	271.790903	0.125118	0.031015	1.317860
34.013253	282.858460	0.130123	0.030842	1.330554
34.716831	293.962256	0.135128	0.030707	1.343086
35.530851	305.031467	0.140132	0.030552	1.355507
36.703044	316.005997	0.145137	0.030329	1.367853
37.974745	327.116435	0.150142	0.030088	1.380272
38.761530	338.247298	0.155146	0.029937	1.392415
39.330572	349.399559	0.160151	0.029828	1.404392
40.125114	360.385392	0.165156	0.029676	1.416179
40.783468	371.510004	0.170161	0.029550	1.427961
41.585855	382.519675	0.175165	0.029396	1.439582
42.292762	393.632047	0.180170	0.029261	1.451178
42.921133	404.703465	0.185175	0.029140	1.462612
43.671094	415.744576	0.190180	0.028997	1.473971
45.289716	426.617794	0.195184	0.028691	1.485386
46.568998	437.774700	0.200189	0.028448	1.496872
47.719471	448.827656	0.205194	0.028229	1.508124
48.750573	459.943270	0.210198	0.028033	1.519310
49.423910	471.051089	0.215203	0.027904	1.530283
50.007737	482.130935	0.220208	0.027792	1.541120
50.979381	493.129804	0.225213	0.027607	1.551936
51.965461	504.171495	0.230217	0.027419	1.562722
52.759840	515.241295	0.235222	0.027267	1.573395
53.202061	526.379189	0.240227	0.027181	1.583943
53.877061	537.359903	0.245232	0.027052	1.594352
54.917735	548.382586	0.250236	0.026854	1.604851
55.692142	559.457067	0.255241	0.026706	1.615242
56.351567	570.567895	0.260246	0.026579	1.625563
57.251689	581.529679	0.265250	0.026408	1.635760
58.014559	592.629326	0.270255	0.026262	1.645974
58.662761	603.674676	0.275260	0.026137	1.656040
59.594014	614.676800	0.280265	0.025960	1.666095
60.283122	625.772401	0.285269	0.025828	1.676096
60.984247	636.823970	0.290274	0.025694	1.686003
61.728860	647.840015	0.295279	0.025551	1.695834
62.401949	658.928609	0.300283	0.025422	1.705649
63.050607	669.944424	0.305288	0.025298	1.715337
63.637194	681.010436	0.310293	0.025185	1.724995
64.426785	692.024295	0.315298	0.025034	1.734615
64.976960	703.102943	0.320302	0.024928	1.744166
65.513604	714.151233	0.325307	0.024825	1.753634
66.239127	725.153606	0.330312	0.024686	1.763068
67.083808	736.186131	0.335317	0.024525	1.772512
67.668128	747.276487	0.340321	0.024412	1.781878
68.347053	758.266895	0.345326	0.024282	1.791139
69.418514	769.275353	0.350331	0.024078	1.800480
69.990728	780.368888	0.355335	0.023968	1.809699
70.586533	791.433546	0.360340	0.023854	1.818855
71.411084	802.423217	0.365345	0.023696	1.827968
71.764324	813.535046	0.370350	0.023627	1.837001
72.280724	824.557982	0.375354	0.023527	1.845965
72.973726	835.569131	0.380359	0.023395	1.854925
73.655832	846.572817	0.385364	0.023264	1.863832
74.725533	857.574913	0.390369	0.023061	1.872802
75.341462	868.687539	0.395373	0.022942	1.881691
75.958428	879.713776	0.400378	0.022824	1.890471
76.473736	890.756236	0.405383	0.022724	1.899196
77.167997	901.788846	0.410387	0.022591	1.907920
77.756169	912.826109	0.415392	0.022478	1.916580
78.440952	923.839672	0.420397	0.022347	1.925209
79.024061	934.902349	0.425402	0.022235	1.933809
79.712942	945.913461	0.430406	0.022103	1.942359
80.416091	956.948166	0.435411	0.021968	1.950893
80.852419	968.010634	0.440416	0.021884	1.959341
81.576123	978.992429	0.445421	0.021745	1.967767
81.970700	990.113918	0.450425	0.021668	1.976176
82.374912	1001.094185	0.455430	0.021590	1.984446
83.302030	1012.077864	0.460435	0.021413	1.992818
83.997004	1023.170363	0.465439	0.021280	2.001176
84.661264	1034.192632	0.470444	0.021152	2.009440
85.188077	1045.244352	0.475449	0.021051	2.017656
85.685577	1056.277142	0.480454	0.020955	2.025818
86.319873	1067.291440	0.485458	0.020833	2.033967
86.951671	1078.316561	0.490463	0.020712	2.042091
87.698209	1089.351434	0.495468	0.020569	2.050217
88.334358	1100.370135	0.500472	0.020447	2.058273
88.823889	1111.433082	0.505477	0.020352	2.066293
89.496228	1122.450202	0.510482	0.020223	2.074293
89.921262	1133.491506	0.515487	0.020141	2.082219
90.408348	1144.535484	0.520491	0.020047	2.090133
90.914981	1155.552218	0.525496	0.019949	2.098001
91.405737	1166.573400	0.530501	0.019854	2.105840
92.203068	1177.572956	0.535506	0.019702	2.113707
92.929236	1188.599188	0.540510	0.019563	2.121546
93.627194	1199.641954	0.545515	0.019429	2.129360
94.182412	1210.696023	0.550520	0.019322	2.137120
94.730914	1221.712418	0.555524	0.019217	2.144825
95.452690	1232.727338	0.560529	0.019078	2.152541
95.931054	1243.790709	0.565534	0.018986	2.160206
96.517477	1254.794239	0.570539	0.018873	2.167827
97.288497	1265.805330	0.575543	0.018726	2.175470
97.870991	1276.850594	0.580548	0.018614	2.183065
98.415574	1287.891744	0.585553	0.018509	2.190622
98.729835	1298.951608	0.590558	0.018447	2.198114
99.165561	1309.953635	0.595562	0.018363	2.205568
99.488679	1320.994995	0.600567	0.018299	2.212999
99.976700	1331.990288	0.605572	0.018205	2.220410
100.795971	1342.976499	0.610576	0.018049	2.227865
101.426571	1354.058169	0.615581	0.017927	2.235315
101.884079	1365.072655	0.620586	0.017839	2.242658
102.654304	1376.099536	0.625591	0.017692	2.250054
103.172223	1387.118847	0.630595	0.017592	2.257365
103.769073	1398.155062	0.635600	0.017477	2.264681
104.282968	1409.169968	0.640605	0.017378	2.271940
104.838174	1420.213452	0.645610	0.017271	2.279204
105.151484	1431.245888	0.650614	0.017209	2.286386
105.812495	1442.248089	0.655619	0.017083	2.293600
106.289047	1453.276051	0.660624	0.016991	2.300768
106.764877	1464.304931	0.665628	0.016899	2.307914
107.106104	1475.374803	0.670633	0.016832	2.315036
107.742984	1486.336172	0.675638	0.016710	2.322129
108.130795	1497.388684	0.680643	0.016634	2.329206
108.754270	1508.412806	0.685647	0.016514	2.336292
109.443096	1519.406235	0.690652	0.016382	2.343352
110.149859	1530.435705	0.695657	0.016247	2.350416
110.400425	1541.507063	0.700661	0.016197	2.357390
111.029447	1552.508453	0.705666	0.016076	2.364378
111.599872	1563.519251	0.710671	0.015967	2.371339
111.996431	1574.567013	0.715676	0.015890	2.378267
112.523327	1585.555267	0.720680	0.015788	2.385165
113.106067	1596.611275	0.725685	0.015676	2.392095
113.180635	1607.670494	0.730690	0.015659	2.398904
113.666339	1618.658581	0.735695	0.015565	2.405734
114.023164	1629.689048	0.740699	0.015496	2.412544
114.547793	1640.706098	0.745704	0.015394	2.419360
115.032739	1651.711435	0.750709	0.015301	2.426141
115.631525	1662.734444	0.755713	0.015186	2.432937
116.269863	1673.743871	0.760718	0.015063	2.439713
117.022677	1684.760619	0.765723	0.014919	2.446498
117.595456	1695.809959	0.770728	0.014809	2.453247
117.992066	1706.838325	0.775732	0.014732	2.459931
118.461882	1717.859239	0.780737	0.014641	2.466606
119.068421	1728.881831	0.785742	0.014524	2.473291
119.322451	1739.913286	0.790747	0.014474	2.479894
119.948325	1750.926715	0.795751	0.014354	2.486541
120.489221	1761.954554	0.800756	0.014250	2.493162
120.835932	1772.985755	0.805761	0.014182	2.499731
121.202692	1784.008058	0.810765	0.014110	2.506280
121.842863	1795.002689	0.815770	0.013987	2.512848
122.170297	1806.053883	0.820775	0.013923	2.519373
122.716964	1817.062347	0.825780	0.013818	2.525897
123.351213	1828.077341	0.830784	0.013696	2.532424
123.827284	1839.101183	0.835789	0.013604	2.538910
124.282907	1850.119995	0.840794	0.013516	2.545372
124.899328	1861.140709	0.845799	0.013398	2.551849
125.499239	1872.172279	0.850803	0.013282	2.558313
126.014428	1883.186978	0.855808	0.013183	2.564734
126.419497	1894.227283	0.860813	0.013104	2.571134
126.724840	1905.327487	0.865817	0.013044	2.577534
126.995081	1916.264386	0.870822	0.012991	2.583818
127.554267	1927.271784	0.875827	0.012883	2.590180
128.029300	1938.303722	0.880832	0.012791	2.596524
128.664278	1949.308418	0.885836	0.012669	2.602867
129.020443	1960.351253	0.890841	0.012600	2.609165
129.300843	1971.386400	0.895846	0.012544	2.615429
129.818786	1982.362681	0.900850	0.012444	2.621689
130.363810	1993.409114	0.905855	0.012339	2.627977
130.815598	2004.418868	0.910860	0.012252	2.634213
131.291338	2015.461413	0.915865	0.012160	2.640457
131.496954	2026.483696	0.920869	0.012119	2.646627
132.091861	2037.500927	0.925874	0.012004	2.652848
132.272547	2048.512362	0.930879	0.011968	2.658978
132.996958	2059.480715	0.935884	0.011829	2.665166
133.431591	2070.536926	0.940888	0.011745	2.671337
133.805566	2081.568625	0.945893	0.011672	2.677469
134.237009	2092.570301	0.950898	0.011588	2.683581
134.986679	2103.556216	0.955902	0.011445	2.689726
135.495508	2114.598093	0.960907	0.011347	2.695845
136.350518	2125.609624	0.965912	0.011183	2.701993
136.546989	2136.686925	0.970917	0.011144	2.708050
136.831699	2147.681360	0.975921	0.011088	2.714063
137.017625	2158.711486	0.980926	0.011050	2.720065
137.659338	2169.690349	0.985931	0.010927	2.726104
138.208086	2180.742200	0.990936	0.010821	2.732153
138.641293	2191.741071	0.995940	0.010737	2.738141
138.748152	2202.788455	1.000945	0.010714	2.744086
139.216916	2213.807646	1.005950	0.010624	2.750064
139.677949	2224.805274	1.010954	0.010534	2.756016
140.103564	2235.830149	1.015959	0.010452	2.761964
140.480070	2246.859444	1.020964	0.010378	2.767893
140.922821	2257.886258	1.025969	0.010293	2.773818
141.177780	2268.889075	1.030973	0.010242	2.779688
141.696391	2279.896440	1.035978	0.010142	2.785591
142.008072	2290.946116	1.040983	0.010081	2.791469
142.509981	2301.947132	1.045988	0.009984	2.797341
142.838735	2312.973421	1.050992	0.009920	2.803185
143.011901	2324.024410	1.055997	0.009884	2.809004
143.294296	2335.015587	1.061002	0.009829	2.814798
143.914463	2346.024296	1.066006	0.009709	2.820644
144.384671	2357.023307	1.071011	0.009619	2.826448
144.917467	2368.091653	1.076016	0.009516	2.832286
145.100373	2379.080320	1.081021	0.009479	2.838014
145.483009	2390.109331	1.086025	0.009404	2.843784
145.815272	2401.141078	1.091030	0.009339	2.849535
146.215302	2412.133974	1.096035	0.009261	2.855266
146.724320	2423.158337	1.101039	0.009163	2.861018
147.250764	2434.186131	1.106044	0.009062	2.866763
147.448653	2445.217697	1.111049	0.009022	2.872447
147.723603	2456.231144	1.116054	0.008967	2.878122
148.240005	2467.220614	1.121058	0.008868	2.883812
148.783869	2478.266918	1.126063	0.008763	2.889523
149.146962	2489.302657	1.131068	0.008692	2.895189
149.378528	2500.316375	1.136073	0.008646	2.900813
149.620034	2511.320924	1.141077	0.008598	2.906423
150.164683	2522.324770	1.146082	0.008493	2.912068
150.704655	2533.333450	1.151087	0.008389	2.917704
151.216300	2544.364010	1.156091	0.008290	2.923335
151.511245	2555.394232	1.161096	0.008232	2.928922
152.030238	2566.400004	1.166101	0.008132	2.934521
152.203520	2577.432154	1.171106	0.008097	2.940069
152.676943	2588.445324	1.176110	0.008005	2.945643
152.974235	2599.477662	1.181115	0.007947	2.951189
153.530038	2610.480221	1.186120	0.007840	2.956748
153.541662	2621.527055	1.191125	0.007835	2.962237
153.788261	2632.543974	1.196129	0.007786	2.967737
153.969269	2643.542752	1.201134	0.007749	2.973207
154.448051	2654.540857	1.206139	0.007657	2.978711
155.029964	2665.551495	1.211143	0.007545	2.984227
155.558209	2676.596199	1.216148	0.007443	2.989741
155.549522	2687.633686	1.221153	0.007442	2.995162
155.889241	2698.639679	1.226158	0.007375	3.000609
156.432563	2709.619427	1.231162	0.007271	3.006063
156.963438	2720.675922	1.236167	0.007168	3.011543
157.184249	2731.679107	1.241172	0.007124	3.016941
157.672235	2742.690706	1.246177	0.007030	3.022373
157.802039	2753.735584	1.251181	0.007003	3.027758
158.223285	2764.739338	1.256186	0.006921	3.033157
158.441621	2775.773585	1.261191	0.006877	3.038531
159.019453	2786.751747	1.266195	0.006766	3.043921
159.285695	2797.825646	1.271200	0.006713	3.049302
159.586205	2808.807954	1.276205	0.006654	3.054634
159.742537	2819.844996	1.281210	0.006622	3.059963
159.991751	2830.866608	1.286214	0.006573	3.065288
160.364818	2841.847958	1.291219	0.006500	3.070602
160.660703	2852.892607	1.296224	0.006442	3.075927
161.099785	2863.894528	1.301228	0.006357	3.081241
161.492511	2874.921165	1.306233	0.006280	3.086552
161.711275	2885.936728	1.311238	0.006236	3.091824
162.224470	2896.935396	1.316243	0.006137	3.097120
162.655920	2907.951289	1.321247	0.006054	3.102404
162.933426	2919.009515	1.326252	0.005999	3.107677
163.222330	2930.010056	1.331257	0.005942	3.112915
163.434415	2941.053442	1.336262	0.005899	3.118154
163.756336	2952.012245	1.341266	0.005836	3.123360
164.415651	2963.058415	1.346271	0.005710	3.128645
164.689586	2974.062316	1.351276	0.005656	3.133847
165.041098	2985.124669	1.356280	0.005587	3.139079
165.359085	2996.092130	1.361285	0.005525	3.144253
165.736674	3007.138113	1.366290	0.005451	3.149463
165.972726	3018.124331	1.371295	0.005404	3.154618
166.666028	3029.159287	1.376299	0.005271	3.159849
166.942948	3040.183830	1.381304	0.005217	3.165009
167.167367	3051.220458	1.386309	0.005172	3.170160
167.372330	3062.216196	1.391314	0.005131	3.175281
167.913866	3073.221554	1.396318	0.005026	3.180443
168.297414	3084.236597	1.401323	0.004952	3.185580
168.777743	3095.268753	1.406328	0.004859	3.190729
168.815219	3106.293276	1.411332	0.004849	3.195808
169.198079	3117.305030	1.416337	0.004774	3.200918
169.611708	3128.323122	1.421342	0.004694	3.206027
169.976480	3139.330412	1.426347	0.004623	3.211117
170.373667	3150.330434	1.431351	0.004546	3.216199
170.720764	3161.354556	1.436356	0.004478	3.221278
171.205058	3172.404051	1.441361	0.004384	3.226378
171.387246	3183.409840	1.446366	0.004347	3.231410
171.801838	3194.405079	1.451370	0.004267	3.236460
172.324097	3205.423370	1.456375	0.004166	3.241527
172.720906	3216.453502	1.461380	0.004089	3.246575
172.837365	3227.480341	1.466384	0.004064	3.251576
173.204160	3238.486200	1.471389	0.003993	3.256593
173.420051	3249.496620	1.476394	0.003949	3.261585
173.846730	3260.510834	1.481399	0.003867	3.266598
174.377109	3271.536306	1.486403	0.003764	3.271622
174.613170	3282.559822	1.491408	0.003717	3.276599
174.942858	3293.565181	1.496413	0.003653	3.281572
175.312118	3304.604192	1.501417	0.003581	3.286558
175.877555	3315.587530	1.506422	0.003472	3.291536
176.189086	3326.633184	1.511427	0.003411	3.296503
176.733801	3337.611109	1.516432	0.003306	3.301461
176.683567	3348.678518	1.521436	0.003312	3.306376
176.853232	3359.678691	1.526441	0.003278	3.311281
177.066182	3370.698550	1.531446	0.003235	3.316194
177.500618	3381.695378	1.536451	0.003151	3.321117
177.953547	3392.712192	1.541455	0.003063	3.326043
178.421914	3403.739294	1.546460	0.002973	3.330969
178.527141	3414.759778	1.551465	0.002950	3.335839
178.984221	3425.745972	1.556469	0.002862	3.340730
179.077038	3436.818197	1.561474	0.002842	3.345607
179.549165	3447.786106	1.566479	0.002750	3.350478
179.863251	3458.814281	1.571484	0.002689	3.355349
180.397416	3469.829662	1.576488	0.002586	3.360234
180.801234	3480.851068	1.581493	0.002507	3.365098
180.960614	3491.902371	1.586498	0.002474	3.369938
181.162673	3502.867365	1.591503	0.002434	3.374739
181.673884	3513.906549	1.596507	0.002335	3.379603
181.660132	3524.941636	1.601512	0.002335	3.384395
182.048978	3535.945923	1.606517	0.002259	3.389215
182.041808	3546.954369	1.611521	0.002258	3.393982
182.407771	3557.967955	1.616526	0.002187	3.398789
182.647108	3568.987979	1.621531	0.002139	3.403578
183.084272	3580.000475	1.626536	0.002054	3.408380
183.216594	3591.018795	1.631540	0.002027	3.413141
183.593398	3602.029646	1.636545	0.001953	3.417921
183.930172	3613.043396	1.641550	0.001887	3.422691
184.402862	3624.053308	1.646555	0.001796	3.427469
184.617768	3635.083427	1.651559	0.001753	3.432218
184.978678	3646.109028	1.656564	0.001682	3.436976
185.162433	3657.121750	1.661569	0.001645	3.441701
185.590491	3668.144490	1.666573	0.001562	3.446452
185.995188	3679.126950	1.671578	0.001483	3.451177
186.453116	3690.160844	1.676583	0.001395	3.455924
186.699672	3701.172251	1.681588	0.001346	3.460629
187.100784	3712.197565	1.686592	0.001268	3.465352
187.354275	3723.209580	1.691597	0.001218	3.470046
187.884132	3734.199936	1.696602	0.001115	3.474756
188.566438	3745.239296	1.701606	0.000985	3.479498
188.977287	3756.265863	1.706611	0.000905	3.484197
189.339688	3767.286862	1.711616	0.000834	3.488881
189.828470	3778.272085	1.716621	0.000740	3.493558
190.213451	3789.321694	1.721625	0.000665	3.498244
190.171090	3800.305869	1.726630	0.000670	3.502848
190.598355	3811.346323	1.731635	0.000587	3.507522
190.970307	3822.346799	1.736640	0.000514	3.512167
191.292808	3833.365932	1.741644	0.000451	3.516809
191.814096	3844.378793	1.746649	0.000351	3.521464
192.239864	3855.410178	1.751654	0.000268	3.526109
192.556063	3866.422447	1.756658	0.000206	3.530728
192.783558	3877.431393	1.761663	0.000161	3.535330
193.090255	3888.448492	1.766668	0.000100	3.539937
193.360299	3899.468295	1.771673	0.000047	3.544536
193.547753	3910.484992	1.776677	0.000009	3.549118
193.777855	3921.517430	1.781682	-0.000037	3.553706
193.990507	3932.517601	1.786687	-0.000080	3.558272
194.352606	3943.523643	1.791692	-0.000150	3.562851
194.702093	3954.546815	1.796696	-0.000219	3.567430
194.940896	3965.553479	1.801701	-0.000266	3.571984
195.241551	3976.578326	1.806706	-0.000325	3.576547
195.743891	3987.565693	1.811710	-0.000422	3.581110
196.074722	3998.611220	1.816715	-0.000487	3.585673
196.299196	4009.628607	1.821720	-0.000532	3.590206
196.654986	4020.625764	1.826725	-0.000601	3.594740
196.892216	4031.666513	1.831729	-0.000649	3.599273
197.223421	4042.684819	1.836734	-0.000713	3.603801
197.341448	4053.722722	1.841739	-0.000738	3.608308
197.649011	4064.671815	1.846744	-0.000799	3.612794
197.976510	4075.737940	1.851748	-0.000863	3.617324
198.098198	4086.708134	1.856753	-0.000888	3.621788
198.523382	4097.775627	1.861758	-0.000971	3.626317
198.706688	4108.811094	1.866762	-0.001008	3.630802
199.313831	4119.817652	1.871767	-0.001125	3.635316
199.922594	4130.812467	1.876772	-0.001242	3.639818
200.181111	4141.862119	1.881777	-0.001293	3.644300
200.683439	4152.853462	1.886781	-0.001390	3.648779
200.847859	4163.919935	1.891786	-0.001424	3.653247
201.439966	4174.891289	1.896791	-0.001537	3.657716
201.739325	4185.923280	1.901795	-0.001596	3.662173
202.036115	4196.927550	1.906800	-0.001655	3.666613
202.160384	4207.965759	1.911805	-0.001681	3.671043
202.400533	4218.969032	1.916810	-0.001729	3.675466
202.581583	4229.978569	1.921814	-0.001765	3.679880
202.985014	4241.006725	1.926819	-0.001844	3.684319
203.219715	4252.016579	1.931824	-0.001890	3.688728
203.654458	4262.999332	1.936829	-0.001975	3.693142
203.773670	4274.075596	1.941833	-0.002000	3.697554
203.965282	4285.039254	1.946838	-0.002038	3.701924
204.338870	4296.083727	1.951843	-0.002111	3.706340
204.548973	4307.084796	1.956847	-0.002153	3.710717
204.960526	4318.107528	1.961852	-0.002233	3.715117
205.405706	4329.115980	1.966857	-0.002320	3.719510
205.590572	4340.131678	1.971862	-0.002357	3.723874
205.987021	4351.156408	1.976866	-0.002434	3.728258
206.154959	4362.177373	1.981871	-0.002468	3.732612
206.506341	4373.194941	1.986876	-0.002537	3.736978
206.796100	4384.203418	1.991881	-0.002594	3.741329
206.990096	4395.224961	1.996885	-0.002633	3.745671
207.108083	4406.234377	2.001890	-0.002658	3.749994
