Wed Nov 23 17:31:11 2022

Number of Points = 2200
Depth (nm)	Load (µN)	Time (s)	Depth (V)	Load (V)
-0.682569	1.204720	0.000000	0.052533	0.901741
0.000000	7.266336	0.005005	0.052403	0.912041
1.077521	16.104803	0.010009	0.052199	0.926903
2.132521	26.584844	0.015014	0.051998	0.944091
3.236482	37.570661	0.020019	0.051789	0.961778
4.164174	48.759924	0.025024	0.051612	0.979352
5.097468	59.958549	0.030028	0.051434	0.996633
5.592651	71.200214	0.035033	0.051338	1.013444
6.348941	82.351412	0.040038	0.051193	1.029990
6.870801	93.551049	0.045043	0.051093	1.046219
7.719150	104.660324	0.050047	0.050931	1.062242
7.946285	115.933702	0.055052	0.050885	1.077937
8.497879	127.020398	0.060057	0.050779	1.093316
8.797490	138.199531	0.065061	0.050720	1.108480
9.381089	149.284496	0.070066	0.050608	1.123453
9.945795	160.403271	0.075071	0.050499	1.138264
10.536608	171.517743	0.080076	0.050386	1.152891
10.809414	182.697498	0.085080	0.050332	1.167268
11.362168	193.772014	0.090085	0.050225	1.181468
11.774519	204.879904	0.095090	0.050145	1.195476
12.388564	215.962237	0.100094	0.050027	1.209380
12.902373	227.097009	0.105099	0.049928	1.223146
13.481140	238.178923	0.110104	0.049817	1.236722
13.833463	249.286361	0.115109	0.049748	1.250084
14.154324	260.438011	0.120113	0.049685	1.263342
14.390035	271.517186	0.125118	0.049638	1.276342
15.026247	282.547287	0.130123	0.049516	1.289322
15.286191	293.741488	0.135128	0.049464	1.302203
15.743415	304.769140	0.140132	0.049376	1.314851
15.970551	315.865034	0.145137	0.049330	1.327361
16.268429	326.938349	0.150142	0.049272	1.339757
16.817347	337.944619	0.155146	0.049166	1.352066
17.316232	349.040742	0.160151	0.049070	1.364342
17.785480	360.137338	0.165156	0.048979	1.376496
18.150275	371.229930	0.170161	0.048908	1.388500
18.294782	382.313530	0.175165	0.048878	1.400306
18.810942	393.341184	0.180170	0.048778	1.412096
19.199734	404.413309	0.185175	0.048702	1.423787
19.791263	415.457855	0.190180	0.048589	1.435428
19.994910	426.583532	0.195184	0.048548	1.446916
20.228655	437.675173	0.200189	0.048501	1.458290
20.356236	448.700934	0.205194	0.048474	1.469470
20.812931	459.735144	0.210198	0.048386	1.480693
21.179334	470.791704	0.215203	0.048315	1.491822
61.063622	474.779321	0.220208	0.040830	1.509871
62.400342	492.106450	0.225213	0.040575	1.527189
62.665087	503.978132	0.230217	0.040522	1.538716
63.041230	515.080373	0.235222	0.040449	1.549463
63.363479	526.165395	0.240227	0.040385	1.560100
63.768909	537.198180	0.245232	0.040307	1.570645
64.395203	548.218327	0.250236	0.040186	1.581181
64.995470	559.260886	0.255241	0.040071	1.591659
65.604837	570.322733	0.260246	0.039954	1.602088
66.324701	581.327989	0.265250	0.039816	1.612435
66.872725	592.470846	0.270255	0.039711	1.622784
67.408633	603.465750	0.275260	0.039607	1.632930
68.027328	614.511994	0.280265	0.039488	1.643086
68.699250	625.549747	0.285269	0.039360	1.653188
69.669519	636.555758	0.290274	0.039175	1.663294
70.354235	647.640362	0.295279	0.039044	1.673319
71.360337	658.630307	0.300283	0.038852	1.683301
71.767764	669.785225	0.305288	0.038773	1.693182
72.783068	680.736853	0.310293	0.038580	1.703016
73.742760	691.769913	0.315298	0.038397	1.712846
74.450252	702.881842	0.320302	0.038261	1.722611
75.114916	713.903186	0.325307	0.038134	1.732230
75.843282	724.957746	0.330312	0.037994	1.741843
76.423854	736.012081	0.335317	0.037883	1.751359
77.079672	747.068620	0.340321	0.037757	1.760847
77.760755	758.069426	0.345326	0.037626	1.770245
78.791502	769.098711	0.350331	0.037430	1.779719
79.179801	780.189738	0.355335	0.037355	1.789007
79.875973	791.202563	0.360340	0.037221	1.798271
80.460187	802.234671	0.365345	0.037109	1.807471
81.560874	813.268793	0.370350	0.036900	1.816773
82.042747	824.333191	0.375354	0.036807	1.825876
83.147449	835.289112	0.380359	0.036597	1.835022
83.647339	846.441395	0.385364	0.036500	1.844109
84.333113	857.433636	0.390369	0.036369	1.853077
84.897087	868.496126	0.395373	0.036260	1.862023
85.778539	879.490696	0.400378	0.036092	1.870959
86.475362	890.551982	0.405383	0.035958	1.879855
87.153846	901.581386	0.410387	0.035828	1.888678
87.731909	912.635476	0.415392	0.035717	1.897452
88.373478	923.683686	0.420397	0.035594	1.906198
88.794184	934.715434	0.425402	0.035512	1.914832
89.701441	945.707917	0.430406	0.035339	1.923526
90.238810	956.787508	0.435411	0.035236	1.932150
90.737352	967.828824	0.440416	0.035140	1.940695
91.037637	978.871069	0.445421	0.035081	1.949152
91.614159	989.861365	0.450425	0.034970	1.957605
92.473749	1000.894242	0.455430	0.034806	1.966127
93.483876	1011.888048	0.460435	0.034613	1.974621
94.015295	1022.985441	0.465439	0.034511	1.983032
94.753109	1034.011223	0.470444	0.034370	1.991408
95.154146	1045.064186	0.475449	0.034292	1.999682
95.789772	1056.084898	0.480454	0.034170	2.007958
96.330435	1067.131114	0.485458	0.034066	2.016194
97.175484	1078.131381	0.490463	0.033904	2.024439
97.516977	1089.201117	0.495468	0.033837	2.032576
98.141815	1100.211530	0.500472	0.033717	2.040707
98.591776	1111.255787	0.505477	0.033630	2.048787
99.448697	1122.262540	0.510482	0.033467	2.056908
100.191190	1133.279172	0.515487	0.033325	2.064976
100.852174	1144.321526	0.520491	0.033198	2.073011
101.172873	1155.408973	0.525496	0.033135	2.080963
101.759718	1166.397731	0.530501	0.033022	2.088880
102.374835	1177.426548	0.535506	0.032904	2.096802
103.168258	1188.432115	0.540510	0.032752	2.104720
104.008737	1199.437785	0.545515	0.032592	2.112619
104.578421	1210.537147	0.550520	0.032482	2.120490
104.781063	1221.577111	0.555524	0.032442	2.128204
105.292502	1232.586712	0.560529	0.032343	2.135941
105.863427	1243.592947	0.565534	0.032233	2.143661
106.719259	1254.607690	0.570539	0.032070	2.151426
107.044786	1265.689578	0.575543	0.032006	2.159085
107.688001	1276.683183	0.580548	0.031883	2.166731
108.250671	1287.719661	0.585553	0.031774	2.174360
108.766226	1298.761978	0.590558	0.031675	2.181955
109.354110	1309.761568	0.595562	0.031562	2.189511
110.260870	1320.746978	0.600567	0.031389	2.197104
110.803092	1331.843165	0.605572	0.031284	2.204663
111.654191	1342.808976	0.610576	0.031122	2.212177
112.490849	1353.863078	0.615581	0.030962	2.219722
113.113510	1364.897892	0.620586	0.030843	2.227180
113.696539	1375.941770	0.625591	0.030731	2.234610
114.296650	1386.945064	0.630595	0.030615	2.241992
114.783167	1398.016405	0.635600	0.030521	2.249369
115.057022	1409.071311	0.640605	0.030467	2.256665
115.481690	1420.045565	0.645610	0.030385	2.263918
116.155378	1431.035127	0.650614	0.030256	2.271211
116.655092	1442.104146	0.655619	0.030159	2.278494
117.168198	1453.121235	0.660624	0.030060	2.285724
117.620827	1464.162949	0.665628	0.029972	2.292933
117.997218	1475.186228	0.670633	0.029899	2.300092
118.533598	1486.188709	0.675638	0.029796	2.307249
119.279911	1497.216599	0.680643	0.029653	2.314444
119.853372	1508.241943	0.685647	0.029543	2.321578
120.335815	1519.268305	0.690652	0.029449	2.328672
121.004989	1530.290295	0.695657	0.029321	2.335781
121.566929	1541.327721	0.700661	0.029213	2.342855
122.126353	1552.341785	0.705666	0.029105	2.349893
122.659750	1563.378675	0.710671	0.029002	2.356918
123.158346	1574.398301	0.715676	0.028906	2.363904
123.670220	1585.422831	0.720680	0.028807	2.370875
124.154008	1596.444585	0.725685	0.028714	2.377818
125.104543	1607.422973	0.730690	0.028533	2.384809
125.489310	1618.501426	0.735695	0.028458	2.391726
125.921764	1629.545029	0.740699	0.028374	2.398611
126.339271	1640.556936	0.745704	0.028293	2.405454
126.926370	1651.560370	0.750709	0.028180	2.412306
127.245386	1662.622914	0.755713	0.028117	2.419121
127.851384	1673.577922	0.760718	0.028001	2.425909
128.217497	1684.657179	0.765723	0.027929	2.432705
128.724270	1695.666057	0.770728	0.027832	2.439467
129.159995	1706.683162	0.775732	0.027747	2.446201
129.921800	1717.702989	0.780737	0.027601	2.452983
130.467151	1728.693972	0.785742	0.027496	2.459685
131.251504	1739.727499	0.790747	0.027346	2.466442
131.618724	1750.814979	0.795751	0.027275	2.473131
132.060640	1761.799673	0.800756	0.027189	2.479755
132.669360	1772.809530	0.805761	0.027072	2.486408
133.235009	1783.854559	0.810765	0.026963	2.493056
133.626269	1794.878630	0.815770	0.026887	2.499640
133.949395	1805.899814	0.820775	0.026824	2.506192
134.070997	1816.963877	0.825780	0.026798	2.512713
134.460297	1827.927574	0.830784	0.026723	2.519210
134.815943	1838.979734	0.835789	0.026653	2.525735
135.500531	1849.973469	0.840794	0.026522	2.532271
135.893786	1861.022857	0.845799	0.026445	2.538768
136.272440	1872.015795	0.850803	0.026372	2.545213
136.664839	1883.063505	0.855808	0.026295	2.551675
137.207078	1894.068379	0.860813	0.026191	2.558124
137.583127	1905.104598	0.865817	0.026117	2.564544
138.347605	1916.088762	0.870822	0.025971	2.570990
138.676021	1927.217664	0.875827	0.025907	2.577422
139.210851	1938.134093	0.880832	0.025804	2.583754
139.586320	1949.185778	0.885836	0.025731	2.590119
140.173166	1960.184092	0.890841	0.025618	2.596476
140.688221	1971.231273	0.895846	0.025518	2.602832
141.243917	1982.223492	0.900850	0.025411	2.609148
141.648241	1993.287158	0.905855	0.025333	2.615462
142.204843	2004.263012	0.910860	0.025226	2.621739
142.715697	2015.301709	0.915865	0.025127	2.628028
143.231895	2026.320070	0.920869	0.025028	2.634291
143.550355	2037.370273	0.925874	0.024965	2.640521
143.971529	2048.352013	0.930879	0.024883	2.646717
144.258496	2059.409270	0.935884	0.024827	2.652917
144.880229	2070.359468	0.940888	0.024707	2.659101
145.253877	2081.412053	0.945893	0.024634	2.665285
145.834397	2092.426776	0.950898	0.024523	2.671469
146.326241	2103.460765	0.955902	0.024428	2.677633
146.710240	2114.461776	0.960907	0.024353	2.683747
147.013194	2125.510069	0.965912	0.024293	2.689858
147.435265	2136.502193	0.970917	0.024212	2.695945
147.994616	2147.541563	0.975921	0.024104	2.702068
148.613555	2158.520732	0.980926	0.023985	2.708155
149.023589	2169.591362	0.985931	0.023905	2.714241
149.371752	2180.600826	0.990936	0.023837	2.720270
149.662908	2191.635801	0.995940	0.023780	2.726289
150.125325	2202.658986	1.000945	0.023690	2.732318
150.522414	2213.639462	1.005950	0.023613	2.738300
151.070102	2224.662254	1.010954	0.023508	2.744316
151.227352	2235.731714	1.015959	0.023475	2.750279
151.679592	2246.704812	1.020964	0.023388	2.756226
151.904222	2257.778801	1.025969	0.023343	2.762176
152.220804	2268.754300	1.030973	0.023281	2.768076
152.712832	2279.766912	1.035978	0.023186	2.774013
153.456735	2290.710264	1.040983	0.023043	2.779942
154.796401	2301.774654	1.045988	0.022789	2.786020
155.383842	2312.833943	1.050992	0.022676	2.791958
155.760461	2323.851593	1.055997	0.022603	2.797827
156.417177	2334.848389	1.061002	0.022477	2.803718
156.915998	2345.884916	1.066006	0.022381	2.809592
157.567024	2356.907980	1.071011	0.022256	2.815471
157.939645	2367.941501	1.076016	0.022183	2.821298
158.068273	2378.981133	1.081021	0.022156	2.827076
158.405168	2389.980141	1.086025	0.022090	2.832855
158.833495	2400.968284	1.091030	0.022007	2.838632
159.519351	2411.996697	1.096035	0.021876	2.844458
159.988703	2423.033941	1.101039	0.021785	2.850243
160.233692	2434.075706	1.106044	0.021736	2.855982
160.579461	2445.077334	1.111049	0.021669	2.861705
160.921845	2456.082996	1.116054	0.021602	2.867418
161.608049	2467.073918	1.121058	0.021470	2.873166
162.199726	2478.114938	1.126063	0.021357	2.878913
162.420829	2489.172832	1.131068	0.021312	2.884599
162.752108	2500.181589	1.136073	0.021247	2.890266
163.057052	2511.199559	1.141077	0.021188	2.895923
163.448841	2522.207266	1.146082	0.021111	2.901576
163.847246	2533.205297	1.151087	0.021034	2.907215
164.253801	2544.242416	1.156091	0.020955	2.912864
164.644267	2555.248201	1.161096	0.020879	2.918483
164.926553	2566.296930	1.166101	0.020823	2.924096
165.285443	2577.294153	1.171106	0.020753	2.929685
165.819893	2588.301569	1.176110	0.020650	2.935294
166.235355	2599.336991	1.181115	0.020569	2.940889
166.728337	2610.335334	1.186120	0.020474	2.946466
167.499191	2621.324407	1.191125	0.020327	2.952070
167.742126	2632.426045	1.196129	0.020278	2.957640
168.270731	2643.379881	1.201134	0.020176	2.963168
168.616297	2654.456865	1.206139	0.020109	2.968719
168.846217	2665.441830	1.211143	0.020063	2.974198
169.203284	2676.481479	1.216148	0.019993	2.979712
169.659530	2687.451865	1.221153	0.019905	2.985196
170.042099	2698.521640	1.226158	0.019830	2.990708
170.460464	2709.504273	1.231162	0.019749	2.996173
171.195187	2720.518951	1.236167	0.019609	3.001690
171.561676	2731.549620	1.241172	0.019537	3.007150
171.769275	2742.596196	1.246177	0.019495	3.012584
173.167095	2753.465035	1.251181	0.019230	3.018097
173.967541	2764.606596	1.256186	0.019078	3.023644
174.567241	2775.610744	1.261191	0.018962	3.029085
175.092036	2786.640436	1.266195	0.018861	3.034518
175.273682	2797.682395	1.271200	0.018824	3.039897
175.699736	2808.680013	1.276205	0.018742	3.045280
176.201573	2819.705957	1.281210	0.018645	3.050678
176.895625	2830.640133	1.286214	0.018512	3.056050
177.695152	2841.729691	1.291219	0.018359	3.061503
178.364790	2852.715384	1.296224	0.018231	3.066877
178.939764	2863.765567	1.301228	0.018120	3.072258
179.042533	2874.818974	1.306233	0.018098	3.077565
179.536259	2885.791040	1.311238	0.018003	3.082879
180.256403	2896.810954	1.316243	0.017865	3.088238
180.666434	2907.839807	1.321247	0.017785	3.093549
180.847771	2918.890128	1.326252	0.017748	3.098828
180.954864	2929.897214	1.331257	0.017726	3.104067
181.195854	2940.916372	1.336262	0.017678	3.109322
181.737361	2951.889384	1.341266	0.017573	3.114589
182.170224	2962.938118	1.346271	0.017489	3.119866
182.531892	2973.952795	1.351276	0.017419	3.125109
182.777234	2984.993423	1.356280	0.017370	3.130339
183.079297	2995.968908	1.361285	0.017311	3.135537
183.518799	3006.999774	1.366290	0.017225	3.140772
183.930108	3018.005083	1.371295	0.017145	3.145982
184.591253	3029.014540	1.376299	0.017019	3.151220
185.107943	3040.048567	1.381304	0.016919	3.156440
185.441536	3051.077272	1.386309	0.016854	3.161624
185.565643	3062.105155	1.391314	0.016828	3.166771
186.027902	3073.114109	1.396318	0.016738	3.171946
186.631484	3084.092826	1.401323	0.016622	3.177118
186.890433	3095.159615	1.406328	0.016571	3.182275
187.096978	3106.172695	1.411332	0.016529	3.187393
187.409996	3117.174703	1.416337	0.016468	3.192511
187.730479	3128.193879	1.421342	0.016405	3.197630
188.420451	3139.186113	1.426347	0.016273	3.202777
188.683255	3150.257553	1.431351	0.016221	3.207896
189.004168	3161.255796	1.436356	0.016158	3.212980
189.220800	3172.254242	1.441361	0.016114	3.218043
189.641356	3183.275439	1.446366	0.016033	3.223135
190.174856	3194.278394	1.451370	0.015930	3.228225
190.611634	3205.300477	1.456375	0.015845	3.233304
191.293127	3216.310201	1.461380	0.015715	3.238400
191.640365	3227.351147	1.466384	0.015647	3.243459
192.018734	3238.372461	1.471389	0.015573	3.248505
192.335464	3249.373828	1.476394	0.015511	3.253526
192.997852	3260.376732	1.481399	0.015384	3.258585
193.543627	3271.405999	1.486403	0.015279	3.263633
193.745791	3282.448909	1.491408	0.015238	3.268634
194.030212	3293.456178	1.496413	0.015182	3.273623
194.448340	3304.450562	1.501417	0.015101	3.278615
194.621396	3315.521130	1.506422	0.015066	3.283602
195.080738	3326.480090	1.511427	0.014977	3.288568
195.656253	3337.515133	1.516432	0.014866	3.293575
196.186869	3348.501979	1.521436	0.014764	3.298548
196.510938	3359.571134	1.526441	0.014700	3.303523
196.704820	3370.575749	1.531446	0.014661	3.308446
197.179617	3381.579585	1.536451	0.014569	3.313396
197.625582	3392.584610	1.541455	0.014483	3.318335
198.039608	3403.624010	1.546460	0.014402	3.323279
198.387800	3414.641029	1.551465	0.014334	3.328197
198.536050	3425.666289	1.556469	0.014304	3.333086
198.728604	3436.667719	1.561474	0.014265	3.337963
199.149175	3447.702509	1.566479	0.014183	3.342875
199.505345	3458.702530	1.571484	0.014114	3.347757
199.785059	3469.710663	1.576488	0.014059	3.352627
199.921332	3480.759140	1.581493	0.014030	3.357488
200.205821	3491.744198	1.586498	0.013974	3.362334
200.676802	3502.767920	1.591503	0.013883	3.367212
200.984672	3513.800284	1.596507	0.013823	3.372067
201.426126	3524.775499	1.601512	0.013737	3.376906
201.778174	3535.815656	1.606517	0.013668	3.381755
202.215725	3546.827916	1.611521	0.013583	3.386596
202.704830	3557.829688	1.616526	0.013489	3.391431
203.193293	3568.864394	1.621531	0.013395	3.396274
203.753949	3579.870612	1.626536	0.013287	3.401106
203.955454	3590.915227	1.631540	0.013246	3.405904
204.226675	3601.927217	1.636545	0.013192	3.410690
204.468140	3612.930610	1.641550	0.013144	3.415461
205.066245	3623.937467	1.646555	0.013029	3.420270
205.302726	3634.969349	1.651559	0.012982	3.425040
205.761540	3645.989297	1.656564	0.012894	3.429825
205.903916	3657.002808	1.661569	0.012864	3.434562
206.235292	3668.007012	1.666573	0.012799	3.439311
206.449979	3679.050284	1.671578	0.012756	3.444057
207.016155	3690.070321	1.676583	0.012647	3.448827
207.127767	3701.056590	1.681588	0.012624	3.453523
207.565358	3712.087568	1.686592	0.012539	3.458270
207.730307	3723.081419	1.691597	0.012505	3.462962
208.248064	3734.110165	1.696602	0.012405	3.467704
208.557216	3745.130839	1.701606	0.012344	3.472412
209.046460	3756.135701	1.706611	0.012250	3.477127
209.508327	3767.136140	1.711616	0.012160	3.481831
209.739599	3778.205538	1.716621	0.012114	3.486531
209.816532	3789.195304	1.721625	0.012097	3.491173
210.298691	3800.200864	1.726630	0.012004	3.495862
210.915017	3811.199820	1.731635	0.011886	3.500558
211.407434	3822.247235	1.736640	0.011790	3.505253
211.697831	3833.251822	1.741644	0.011733	3.509901
211.890163	3844.293530	1.746649	0.011694	3.514546
212.104175	3855.292581	1.751654	0.011652	3.519171
212.532479	3866.313066	1.756658	0.011568	3.523822
212.832627	3877.336161	1.761663	0.011509	3.528454
213.142607	3888.355602	1.766668	0.011449	3.533079
213.482874	3899.334995	1.771673	0.011382	3.537685
213.769865	3910.378790	1.776677	0.011325	3.542306
214.070892	3921.376250	1.781682	0.011266	3.546903
214.501766	3932.390086	1.786687	0.011183	3.551515
214.684853	3943.424423	1.791692	0.011146	3.556102
215.067539	3954.435191	1.796696	0.011071	3.560695
215.376131	3965.466122	1.801701	0.011010	3.565282
215.753606	3976.436917	1.806706	0.010937	3.569847
216.030476	3987.481790	1.811710	0.010882	3.574425
216.595869	3998.493940	1.816715	0.010773	3.579015
216.825741	4009.516474	1.821720	0.010727	3.583566
217.255428	4020.552976	1.826725	0.010644	3.588140
217.532003	4031.521403	1.831729	0.010589	3.592663
217.796401	4042.576659	1.836734	0.010537	3.597214
218.201648	4053.566453	1.841739	0.010458	3.601748
218.528180	4064.621341	1.846744	0.010394	3.606294
218.683778	4075.588884	1.851748	0.010362	3.610781
218.936323	4086.628041	1.856753	0.010312	3.615301
219.285383	4097.642490	1.861758	0.010244	3.619816
219.926432	4108.695715	1.866762	0.010121	3.624373
220.394141	4119.722410	1.871767	0.010031	3.628894
220.597113	4130.753288	1.876772	0.009990	3.633383
220.894226	4141.736739	1.881777	0.009931	3.637857
221.063693	4152.793294	1.886781	0.009897	3.642341
221.248710	4163.783635	1.891786	0.009859	3.646795
221.998920	4174.754551	1.896791	0.009716	3.651296
222.215797	4185.827640	1.901795	0.009672	3.655775
222.440280	4196.826237	1.906800	0.009628	3.660220
222.727811	4207.859928	1.911805	0.009571	3.664680
223.099946	4218.847668	1.916810	0.009498	3.669125
223.498374	4229.863216	1.921814	0.009421	3.673579
223.859621	4240.901466	1.926819	0.009350	3.678032
224.082530	4251.920097	1.931824	0.009306	3.682457
224.381157	4262.948007	1.936829	0.009247	3.686889
224.536162	4273.921998	1.941833	0.009215	3.691279
224.885615	4284.943908	1.946838	0.009147	3.695703
225.335708	4295.962487	1.951843	0.009060	3.700130
225.813064	4306.984407	1.956847	0.008967	3.704557
226.066252	4317.997208	1.961852	0.008917	3.708951
226.504433	4329.012213	1.966857	0.008832	3.713360
226.741067	4340.044140	1.971862	0.008785	3.717749
227.358591	4351.029142	1.976866	0.008667	3.722154
227.729803	4362.069430	1.981871	0.008594	3.726550
228.105025	4373.074504	1.986876	0.008521	3.730928
228.223995	4384.104419	1.991881	0.008496	3.735284
228.514780	4395.117985	1.996885	0.008439	3.739645
228.883528	4406.118964	2.001890	0.008367	3.744005
229.375371	4417.118846	2.006895	0.008272	3.748371
