Wed Nov 23 17:12:02 2022

Number of Points = 2200
Depth (nm)	Load (µN)	Time (s)	Depth (V)	Load (V)
-2.380939	1.070511	0.000000	0.079166	0.809909
0.000000	6.368304	0.005005	0.078718	0.821170
2.005580	14.944639	0.010009	0.078339	0.837855
3.525973	25.432628	0.015014	0.078051	0.857215
4.761390	36.486526	0.020019	0.077817	0.876924
5.850682	47.733927	0.025024	0.077609	0.896428
6.612057	59.050371	0.030028	0.077464	0.915431
7.472212	70.295350	0.035033	0.077300	0.933991
8.125978	81.557189	0.040038	0.077174	0.952095
8.631545	92.810088	0.045043	0.077077	0.969763
9.098489	104.037116	0.050047	0.076986	0.987055
9.651024	115.199004	0.055052	0.076880	1.003998
9.986377	126.419767	0.060057	0.076814	1.020629
10.513107	137.553844	0.065061	0.076712	1.036969
10.863947	148.741457	0.070066	0.076644	1.053040
11.286217	159.897754	0.075071	0.076562	1.068862
11.690792	171.027076	0.080076	0.076483	1.084407
12.221140	182.158101	0.085080	0.076381	1.099797
12.520407	193.321401	0.090085	0.076322	1.114903
12.853234	204.467100	0.095090	0.076257	1.129801
13.186177	215.584073	0.100094	0.076191	1.144467
13.593997	226.677484	0.105099	0.076112	1.158952
14.107429	237.762227	0.110104	0.076013	1.173297
14.487271	248.918842	0.115109	0.075939	1.187496
14.844723	260.020614	0.120113	0.075869	1.201449
15.310411	271.116020	0.125118	0.075779	1.215283
15.453786	282.288464	0.130123	0.075749	1.228911
15.869112	293.328964	0.135128	0.075669	1.242350
16.104634	304.452743	0.140132	0.075622	1.255667
16.595568	315.486328	0.145137	0.075527	1.268847
16.742153	326.649881	0.150142	0.075497	1.281896
16.994993	337.731166	0.155146	0.075447	1.294763
17.186972	348.873124	0.160151	0.075408	1.307548
17.606057	359.881871	0.165156	0.075326	1.320152
17.808954	370.965201	0.170161	0.075286	1.332632
18.302451	382.006922	0.175165	0.075190	1.345066
40.713075	388.543580	0.180170	0.070984	1.361159
44.128182	403.282352	0.185175	0.070339	1.378454
44.405614	415.173107	0.190180	0.070284	1.391292
45.068028	426.304010	0.195184	0.070157	1.403357
45.513733	437.412386	0.200189	0.070071	1.415213
46.121029	448.467091	0.205194	0.069954	1.426975
46.661817	459.546948	0.210198	0.069850	1.438642
47.289445	470.580837	0.215203	0.069729	1.450199
47.652563	481.723369	0.220208	0.069658	1.461679
48.387048	492.691287	0.225213	0.069518	1.473027
48.882878	503.797940	0.230217	0.069422	1.484341
49.658513	514.807993	0.235222	0.069274	1.495574
50.338521	525.884529	0.240227	0.069143	1.506753
51.332101	536.887531	0.245232	0.068954	1.517889
52.503112	547.891080	0.250236	0.068732	1.529005
53.832271	558.948855	0.255241	0.068480	1.540146
54.793860	570.061211	0.260246	0.068296	1.551134
55.668316	581.146629	0.265250	0.068130	1.561988
56.098589	592.266471	0.270255	0.068046	1.572649
57.027254	603.249320	0.275260	0.067869	1.583277
57.772928	614.309184	0.280265	0.067727	1.593845
58.847911	625.327748	0.285269	0.067522	1.604413
59.513691	636.449399	0.290274	0.067394	1.614872
59.927247	647.530261	0.295279	0.067314	1.625144
60.524313	658.574817	0.300283	0.067199	1.635377
61.186856	669.588215	0.305288	0.067072	1.645540
61.761579	680.642232	0.310293	0.066962	1.655648
62.801963	691.618828	0.315298	0.066764	1.665773
63.554982	702.726994	0.320302	0.066620	1.675863
64.323786	713.772250	0.325307	0.066473	1.685841
65.046332	724.804005	0.330312	0.066334	1.695734
66.045642	735.818751	0.335317	0.066144	1.705640
67.131145	746.843948	0.340321	0.065938	1.715523
67.880772	757.961782	0.345326	0.065794	1.725327
68.384478	769.029286	0.350331	0.065697	1.734957
69.085120	780.032990	0.355335	0.065563	1.744540
69.738330	791.085867	0.360340	0.065438	1.754096
70.473700	802.132045	0.365345	0.065297	1.763620
71.077637	813.191258	0.370350	0.065181	1.773064
71.903103	824.185923	0.375354	0.065023	1.782469
72.542413	835.252427	0.380359	0.064900	1.791830
73.405922	846.280314	0.385364	0.064736	1.801174
74.009514	857.324788	0.390369	0.064620	1.810409
74.886054	868.347540	0.395373	0.064453	1.819657
75.576987	879.399547	0.400378	0.064320	1.828829
76.429929	890.437092	0.405383	0.064157	1.837989
76.987429	901.500271	0.410387	0.064050	1.847041
77.756403	912.534973	0.415392	0.063903	1.856084
78.369265	923.548780	0.420397	0.063785	1.865023
79.299371	934.582577	0.425402	0.063608	1.874023
79.805291	945.666752	0.430406	0.063510	1.882903
80.468796	956.679560	0.435411	0.063383	1.891728
80.884273	967.743570	0.440416	0.063302	1.900484
81.837558	978.706268	0.445421	0.063121	1.909266
82.565490	989.774467	0.450425	0.062982	1.918029
83.296337	1000.820206	0.455430	0.062842	1.926735
83.753282	1011.881656	0.460435	0.062753	1.935341
84.469726	1022.888632	0.465439	0.062616	1.943935
84.743405	1033.978935	0.470444	0.062562	1.952438
85.505950	1044.959711	0.475449	0.062416	1.960950
86.287966	1055.961934	0.480454	0.062267	1.969445
87.326845	1066.995446	0.485458	0.062069	1.977994
88.045777	1078.047231	0.490463	0.061931	1.986436
88.861819	1089.091978	0.495468	0.061775	1.994862
89.352539	1100.150343	0.500472	0.061681	2.003180
90.051782	1111.169455	0.505477	0.061547	2.011487
90.642333	1122.206771	0.510482	0.061433	2.019745
91.304075	1133.236286	0.515487	0.061306	2.027982
91.781938	1144.285682	0.520491	0.061214	2.036153
92.300810	1155.306460	0.525496	0.061114	2.044281
93.025823	1166.301215	0.530501	0.060975	2.052409
93.987958	1177.335537	0.535506	0.060792	2.060592
94.455075	1188.391303	0.540510	0.060701	2.068635
95.031363	1199.441636	0.545515	0.060591	2.076671
95.320922	1210.494615	0.550520	0.060533	2.084607
96.106349	1221.453312	0.555524	0.060383	2.092566
96.589419	1232.536322	0.560529	0.060290	2.100509
97.311881	1243.513665	0.565534	0.060152	2.108406
97.824371	1254.583683	0.570539	0.060053	2.116287
98.294080	1265.626093	0.575543	0.059962	2.124110
99.052466	1276.606945	0.580548	0.059817	2.131929
99.802797	1287.644004	0.585553	0.059673	2.139756
100.476744	1298.664141	0.590558	0.059544	2.147525
101.180598	1309.715744	0.595562	0.059409	2.155295
101.538905	1320.780421	0.600567	0.059339	2.162964
102.046166	1331.794293	0.605572	0.059241	2.170607
102.674839	1342.784532	0.610576	0.059121	2.178234
103.337111	1353.826119	0.615581	0.058994	2.185877
103.883753	1364.862897	0.620586	0.058888	2.193463
104.484770	1375.869217	0.625591	0.058773	2.201015
105.125437	1386.911515	0.630595	0.058650	2.208574
105.615743	1397.968222	0.635600	0.058555	2.216082
105.968568	1408.991429	0.640605	0.058486	2.223512
106.852433	1419.940470	0.645610	0.058318	2.230987
107.623196	1431.017734	0.650614	0.058170	2.238495
107.964250	1442.075867	0.655619	0.058104	2.245871
108.174371	1453.141479	0.660624	0.058062	2.253198
108.613474	1464.110424	0.665628	0.057976	2.260489
109.219787	1475.122640	0.670633	0.057860	2.267820
109.991541	1486.138926	0.675638	0.057712	2.275167
110.441008	1497.173326	0.680643	0.057625	2.282431
111.031907	1508.223173	0.685647	0.057512	2.289713
111.548592	1519.226654	0.690652	0.057412	2.296926
112.124958	1530.256606	0.695657	0.057301	2.304145
112.548787	1541.295203	0.700661	0.057219	2.311315
113.113223	1552.303356	0.705666	0.057110	2.318473
113.559288	1563.355686	0.710671	0.057024	2.325612
114.098584	1574.364465	0.715676	0.056920	2.332721
114.497443	1585.412660	0.720680	0.056842	2.339803
115.077282	1596.391576	0.725685	0.056731	2.346858
115.630677	1607.433595	0.730690	0.056624	2.353926
116.203032	1618.449616	0.735695	0.056514	2.360960
116.475321	1629.528584	0.740699	0.056460	2.367951
116.855454	1640.523633	0.745704	0.056386	2.374890
117.409106	1651.527751	0.750709	0.056280	2.381851
118.248326	1662.502863	0.755713	0.056119	2.388831
118.877796	1673.578844	0.760718	0.055999	2.395811
119.353567	1684.617124	0.765723	0.055907	2.402715
119.816173	1695.624618	0.770728	0.055817	2.409578
120.393508	1706.669022	0.775732	0.055706	2.416467
120.958381	1717.661477	0.780737	0.055597	2.423302
121.703350	1728.683314	0.785742	0.055455	2.430172
122.117916	1739.727685	0.790747	0.055374	2.436969
122.501033	1750.786517	0.795751	0.055300	2.443751
122.878422	1761.772271	0.800756	0.055226	2.450467
123.394672	1772.790968	0.805761	0.055126	2.457213
124.044826	1783.795091	0.810765	0.055002	2.463958
124.629964	1794.836995	0.815770	0.054889	2.470694
124.915332	1805.894634	0.820775	0.054833	2.477362
125.519100	1816.884884	0.825780	0.054717	2.484034
125.960707	1827.906148	0.830784	0.054631	2.490675
126.535572	1838.931725	0.835789	0.054521	2.497326
126.893658	1849.986499	0.840794	0.054451	2.503936
127.401769	1860.966856	0.845799	0.054353	2.510512
127.742893	1872.010816	0.850803	0.054286	2.517077
128.142670	1883.032845	0.855808	0.054208	2.523622
128.609674	1894.056393	0.860813	0.054118	2.530165
129.158070	1905.045027	0.865817	0.054012	2.536685
129.777533	1916.099555	0.870822	0.053893	2.543240
130.243648	1927.107447	0.875827	0.053803	2.549722
130.526479	1938.157132	0.880832	0.053747	2.556178
130.995933	1949.156769	0.885836	0.053657	2.562623
131.593603	1960.177552	0.890841	0.053542	2.569088
131.941140	1971.267346	0.895846	0.053474	2.575529
132.275979	1982.247801	0.900850	0.053408	2.581890
132.528320	1993.274156	0.905855	0.053358	2.588246
132.915162	2004.267475	0.910860	0.053283	2.594591
133.488453	2015.263484	0.915865	0.053172	2.600957
134.118639	2026.289876	0.920869	0.053051	2.607335
134.649317	2037.347909	0.925874	0.052949	2.613697
134.802390	2048.362421	0.930879	0.052918	2.619950
135.138486	2059.355133	0.935884	0.052852	2.626210
135.472166	2070.386415	0.940888	0.052787	2.632475
135.991642	2081.363341	0.945893	0.052686	2.638728
136.516677	2092.422459	0.950898	0.052585	2.645013
136.799076	2103.464546	0.955902	0.052529	2.651231
137.170481	2114.474280	0.960907	0.052457	2.657431
137.661252	2125.454226	0.965912	0.052362	2.663622
138.027885	2136.494226	0.970917	0.052291	2.669810
138.443714	2147.527180	0.975921	0.052210	2.675987
138.832957	2158.552727	0.980926	0.052134	2.682142
139.171421	2169.564045	0.985931	0.052068	2.688266
139.688636	2180.580088	0.990936	0.051968	2.694409
139.995483	2191.613898	0.995940	0.051908	2.700512
140.451492	2202.616729	1.000945	0.051820	2.706610
140.917288	2213.649317	1.005950	0.051729	2.712711
141.408039	2224.644942	1.010954	0.051635	2.718783
141.725189	2235.692384	1.015959	0.051572	2.724840
142.162281	2246.707397	1.020964	0.051488	2.730886
142.604257	2257.725623	1.025969	0.051402	2.736921
143.018127	2268.745734	1.030973	0.051322	2.742939
143.554018	2279.734795	1.035978	0.051218	2.748948
143.882840	2290.802588	1.040983	0.051154	2.754950
143.972503	2301.819039	1.045988	0.051134	2.760872
144.518288	2312.816108	1.050992	0.051029	2.766847
144.885103	2323.856248	1.055997	0.050958	2.772803
145.125406	2334.863388	1.061002	0.050910	2.778706
145.467334	2345.889502	1.066006	0.050843	2.784624
145.794842	2356.909247	1.071011	0.050779	2.790524
146.234988	2367.915195	1.076016	0.050693	2.796422
146.552144	2378.958442	1.081021	0.050631	2.802308
146.899341	2389.970877	1.086025	0.050563	2.808169
147.295635	2400.992653	1.091030	0.050486	2.814031
147.717885	2411.986364	1.096035	0.050404	2.819871
148.115191	2423.029034	1.101039	0.050327	2.825720
148.630307	2434.039958	1.106044	0.050228	2.831559
149.005923	2445.049817	1.111049	0.050154	2.837362
149.429864	2456.062296	1.116054	0.050072	2.843163
149.882320	2467.097978	1.121058	0.049984	2.848969
150.250960	2478.133823	1.126063	0.049913	2.854750
150.387617	2489.156671	1.131068	0.049884	2.860474
150.943155	2500.131122	1.136073	0.049777	2.866229
151.364711	2511.197535	1.141077	0.049695	2.871999
151.697606	2522.193107	1.146082	0.049630	2.877706
151.973891	2533.219208	1.151087	0.049576	2.883409
152.307631	2544.244301	1.156091	0.049510	2.889109
152.421580	2555.296776	1.161096	0.049486	2.894777
152.871537	2566.255607	1.166101	0.049399	2.900438
153.330883	2577.270938	1.171106	0.049310	2.906119
153.871425	2588.301309	1.176110	0.049206	2.911809
154.172728	2599.340291	1.181115	0.049147	2.917455
154.610219	2610.309338	1.186120	0.049062	2.923076
155.080642	2621.381483	1.191125	0.048971	2.928742
155.325882	2632.391331	1.196129	0.048922	2.934332
155.625648	2643.413274	1.201134	0.048863	2.939925
155.895116	2654.423492	1.206139	0.048810	2.945497
156.257843	2665.448283	1.211143	0.048739	2.951080
156.622386	2676.456978	1.216148	0.048668	2.956645
157.012819	2687.467703	1.221153	0.048592	2.962204
157.436680	2698.501318	1.226158	0.048510	2.967769
157.557538	2709.538810	1.231162	0.048484	2.973280
157.902033	2720.530378	1.236167	0.048417	2.978791
158.098813	2731.560967	1.241172	0.048377	2.984289
158.478018	2742.568918	1.246177	0.048303	2.989793
158.708805	2753.596908	1.251181	0.048257	2.995275
159.084891	2764.605280	1.256186	0.048184	3.000758
159.415670	2775.647886	1.261191	0.048119	3.006242
159.801082	2786.622040	1.266195	0.048044	3.011690
159.925382	2797.691324	1.271200	0.048018	3.017136
160.327889	2808.653618	1.276205	0.047940	3.022561
160.578994	2819.730184	1.281210	0.047890	3.028009
161.049803	2830.707172	1.286214	0.047799	3.033431
161.219436	2841.761324	1.291219	0.047764	3.038837
161.488825	2852.733426	1.296224	0.047711	3.044209
161.894304	2863.788802	1.301228	0.047632	3.049630
162.359189	2874.763279	1.306233	0.047542	3.055012
162.726573	2885.805516	1.311238	0.047471	3.060402
162.830619	2896.836187	1.316243	0.047448	3.065739
163.164413	2907.859813	1.321247	0.047383	3.071097
163.367848	2918.850936	1.326252	0.047342	3.076411
163.749184	2929.879913	1.331257	0.047268	3.081759
164.198469	2940.874992	1.336262	0.047181	3.087092
164.574481	2951.919846	1.341266	0.047108	3.092428
164.801543	2962.913905	1.346271	0.047062	3.097710
165.284361	2973.951389	1.351276	0.046969	3.103040
165.590540	2984.959608	1.356280	0.046909	3.108321
165.820042	2995.995776	1.361285	0.046863	3.113596
166.447162	3006.981373	1.366290	0.046743	3.118894
166.581806	3018.032883	1.371295	0.046715	3.124145
167.056003	3029.043197	1.376299	0.046623	3.129415
167.296210	3040.064126	1.381304	0.046575	3.134648
167.690451	3051.065631	1.386309	0.046498	3.139885
167.998950	3062.089243	1.391314	0.046438	3.145111
168.171344	3073.118980	1.396318	0.046403	3.150313
168.387362	3084.129646	1.401323	0.046359	3.155504
168.786768	3095.117517	1.406328	0.046282	3.160700
169.099976	3106.177269	1.411332	0.046220	3.165909
169.470657	3117.164362	1.416337	0.046148	3.171084
169.577213	3128.224300	1.421342	0.046125	3.176248
169.920200	3139.176742	1.426347	0.046058	3.181386
170.296510	3150.251293	1.431351	0.045985	3.186577
170.463134	3161.240964	1.436356	0.045951	3.191691
170.884497	3172.257229	1.441361	0.045869	3.196844
171.151073	3183.292155	1.446366	0.045816	3.201976
171.335323	3194.321593	1.451370	0.045779	3.207087
171.512213	3205.313268	1.456375	0.045743	3.212170
171.823477	3216.329731	1.461380	0.045682	3.217276
172.260305	3227.328256	1.466384	0.045597	3.222381
172.563431	3238.384804	1.471389	0.045538	3.227487
172.883810	3249.369484	1.476394	0.045475	3.232554
173.102812	3260.422958	1.481399	0.045431	3.237632
173.395670	3271.400030	1.486403	0.045373	3.242676
173.812184	3282.445937	1.491408	0.045292	3.247760
174.076802	3293.447557	1.496413	0.045240	3.252796
174.496436	3304.454169	1.501417	0.045159	3.257846
174.778969	3315.472955	1.506422	0.045103	3.262876
175.135858	3326.509049	1.511427	0.045033	3.267916
175.356161	3337.522957	1.516432	0.044989	3.272920
175.587152	3348.554340	1.521436	0.044943	3.277926
175.698927	3359.559321	1.526441	0.044919	3.282897
176.069869	3370.584646	1.531446	0.044847	3.287903
176.229136	3381.594504	1.536451	0.044814	3.292867
176.436409	3392.612286	1.541455	0.044773	3.297833
176.816200	3403.589918	1.546460	0.044699	3.302796
177.256736	3414.635606	1.551465	0.044613	3.307789
177.384415	3425.665828	1.556469	0.044587	3.312728
177.593812	3436.689363	1.561474	0.044545	3.317667
177.958451	3447.664291	1.566479	0.044474	3.322597
178.459002	3458.699515	1.571484	0.044377	3.327563
178.665258	3469.719814	1.576488	0.044335	3.332478
179.033985	3480.748575	1.581493	0.044264	3.337410
179.240477	3491.727695	1.586498	0.044222	3.342292
179.518490	3502.784168	1.591503	0.044167	3.347210
179.485158	3513.802159	1.596507	0.044171	3.352065
179.886453	3524.796974	1.601512	0.044093	3.356957
180.128170	3535.836226	1.606517	0.044045	3.361841
180.437663	3546.854868	1.611521	0.043984	3.366718
180.582541	3557.834278	1.616526	0.043954	3.371550
180.976480	3568.867224	1.621531	0.043877	3.376429
181.277656	3579.864708	1.626536	0.043818	3.381274
181.699592	3590.899440	1.631540	0.043736	3.386143
181.904489	3601.925378	1.636545	0.043695	3.390974
182.169518	3612.950383	1.641550	0.043642	3.395806
182.459147	3623.950679	1.646555	0.043585	3.400623
182.669301	3634.991970	1.651559	0.043543	3.405441
182.894451	3645.977159	1.656564	0.043498	3.410230
183.218489	3657.005971	1.661569	0.043435	3.415043
183.566356	3668.003531	1.666573	0.043367	3.419838
183.903769	3679.042940	1.671578	0.043301	3.424644
184.072340	3690.054578	1.676583	0.043266	3.429410
184.349587	3701.080510	1.681588	0.043212	3.434189
184.551241	3712.081284	1.686592	0.043171	3.438941
184.909126	3723.110882	1.691597	0.043101	3.443718
185.199331	3734.128254	1.696602	0.043044	3.448475
185.415439	3745.129087	1.701606	0.043001	3.453209
185.768847	3756.124041	1.706611	0.042932	3.457950
186.133288	3767.170166	1.711616	0.042860	3.462708
186.397147	3778.195841	1.716621	0.042808	3.467439
186.629936	3789.203562	1.721625	0.042762	3.472152
186.726531	3800.207404	1.726630	0.042741	3.476841
187.229022	3811.210855	1.731635	0.042644	3.481571
187.392996	3822.258732	1.736640	0.042610	3.486273
187.739204	3833.252428	1.741644	0.042543	3.490968
187.976257	3844.280125	1.746649	0.042496	3.495658
188.164033	3855.297149	1.751654	0.042458	3.500331
188.415323	3866.311679	1.756658	0.042408	3.505004
188.622612	3877.336862	1.761663	0.042366	3.509671
189.005142	3888.328273	1.766668	0.042292	3.514337
189.333305	3899.382969	1.771673	0.042227	3.519017
189.465385	3910.387740	1.776677	0.042200	3.523648
189.682310	3921.419793	1.781682	0.042156	3.528293
189.830938	3932.394811	1.786687	0.042126	3.532901
190.142986	3943.427354	1.791692	0.042064	3.537545
190.475974	3954.412087	1.796696	0.041999	3.542166
190.775770	3965.469967	1.801701	0.041940	3.546807
190.764288	3976.478337	1.806706	0.041940	3.551386
191.008882	3987.484936	1.811710	0.041891	3.555988
191.242873	3998.488563	1.816715	0.041844	3.560581
191.602275	4009.511162	1.821720	0.041774	3.565190
191.911184	4020.519725	1.826725	0.041714	3.569782
192.186948	4031.546396	1.831729	0.041659	3.574371
192.249852	4042.568416	1.836734	0.041645	3.578929
192.732885	4053.580879	1.841739	0.041551	3.583523
193.110991	4064.595164	1.846744	0.041478	3.588101
193.388634	4075.616661	1.851748	0.041423	3.592665
193.606421	4086.625895	1.856753	0.041379	3.597211
193.842402	4097.677885	1.861758	0.041332	3.601771
194.026558	4108.719087	1.866762	0.041295	3.606315
194.315851	4119.718020	1.871767	0.041238	3.610848
196.201498	4130.585892	1.876772	0.040881	3.615495
197.646691	4141.716391	1.881777	0.040607	3.620195
198.179615	4152.747168	1.886781	0.040505	3.624749
198.487768	4163.796130	1.891786	0.040444	3.629281
198.854592	4174.789790	1.896791	0.040373	3.633790
199.321509	4185.820079	1.901795	0.040282	3.638319
199.674428	4196.830858	1.906800	0.040213	3.642823
200.093450	4207.867363	1.911805	0.040132	3.647338
200.045062	4218.848667	1.916810	0.040138	3.651776
200.239975	4229.894887	1.921814	0.040099	3.656260
200.454880	4240.881439	1.926819	0.040056	3.660716
200.763518	4251.937430	1.931824	0.039995	3.665206
200.820010	4262.932521	1.936829	0.039982	3.669638
200.889629	4273.969354	1.941833	0.039966	3.674083
200.975752	4284.949155	1.946838	0.039947	3.678502
201.238397	4295.988507	1.951843	0.039895	3.682957
201.579507	4307.003702	1.956847	0.039829	3.687406
201.956013	4317.989648	1.961852	0.039755	3.691842
202.102361	4329.017404	1.966857	0.039725	3.696264
202.503753	4340.017563	1.971862	0.039647	3.700697
202.725372	4351.057902	1.976866	0.039603	3.705122
203.112549	4362.063685	1.981871	0.039527	3.709545
203.392967	4373.080170	1.986876	0.039472	3.713956
203.733529	4384.097468	1.991881	0.039405	3.718368
203.905585	4395.127937	1.996885	0.039370	3.722762
203.980468	4406.154300	2.001890	0.039353	3.727140
204.121510	4417.114954	2.006895	0.039324	3.731493
