Wed Nov 23 17:31:11 2022

Number of Points = 2200
Depth (nm)	Load (µN)	Time (s)	Depth (V)	Load (V)
-1.471651	1.806262	0.000000	0.079947	0.808411
0.000000	6.773907	0.005005	0.079669	0.818480
2.590152	14.879473	0.010009	0.079181	0.834772
5.047992	25.102319	0.015014	0.078717	0.854350
7.149691	36.136992	0.020019	0.078320	0.874640
8.345178	47.544297	0.025024	0.078093	0.894527
9.609744	58.830500	0.030028	0.077853	0.913825
10.583157	70.144116	0.035033	0.077668	0.932595
11.845290	81.323216	0.040038	0.077428	0.950950
12.704099	92.623004	0.045043	0.077264	0.968912
13.574356	103.876122	0.050047	0.077098	0.986483
14.224340	115.068834	0.055052	0.076973	1.003535
15.396033	126.185499	0.060057	0.076751	1.020472
16.883011	137.211744	0.065061	0.076469	1.037169
18.579682	148.337012	0.070066	0.076148	1.053849
20.002924	159.553119	0.075071	0.075878	1.070254
21.269297	170.750993	0.080076	0.075638	1.086305
22.332781	181.933684	0.085080	0.075435	1.102001
23.737558	192.996825	0.090085	0.075169	1.117484
25.537250	204.088163	0.095090	0.074829	1.132981
26.369245	215.395574	0.100094	0.074670	1.148087
26.976478	226.576882	0.105099	0.074553	1.162730
28.162316	237.593555	0.110104	0.074328	1.177250
29.667251	248.585944	0.115109	0.074043	1.191709
31.202949	259.749046	0.120113	0.073752	1.206217
32.167200	270.951975	0.125118	0.073568	1.220345
33.427146	281.996698	0.130123	0.073329	1.234251
34.357639	293.170280	0.135128	0.073151	1.248011
35.541666	304.239452	0.140132	0.072927	1.261606
36.707093	315.297806	0.145137	0.072705	1.275035
38.077102	326.388747	0.150142	0.072445	1.288447
38.998226	337.589712	0.155146	0.072270	1.301659
39.750523	348.693235	0.160151	0.072126	1.314557
40.755733	359.729096	0.165156	0.071934	1.327358
42.205734	370.702481	0.170161	0.071660	1.340145
43.024091	381.903746	0.175165	0.071503	1.352809
44.022484	392.963067	0.180170	0.071313	1.365271
44.614225	404.123711	0.185175	0.071199	1.377571
45.690470	415.111279	0.190180	0.070995	1.389764
46.645829	426.178004	0.195184	0.070813	1.401888
47.784813	437.218851	0.200189	0.070596	1.413949
48.966478	448.285103	0.205194	0.070372	1.425951
49.661484	459.442957	0.210198	0.070239	1.437764
50.741051	470.454840	0.215203	0.070033	1.449474
51.611064	481.557760	0.220208	0.069867	1.461105
52.688365	492.573035	0.225213	0.069663	1.472630
53.717615	503.634440	0.230217	0.069467	1.484095
54.641582	514.749616	0.235222	0.069291	1.495486
55.742344	525.756317	0.240227	0.069081	1.506747
56.689153	536.839630	0.245232	0.068901	1.517944
57.830937	547.886859	0.250236	0.068684	1.529091
58.424938	559.028778	0.255241	0.068570	1.540060
59.346880	570.024055	0.260246	0.068394	1.550922
60.233558	581.087272	0.265250	0.068225	1.561761
61.392713	592.111375	0.270255	0.068005	1.572580
62.278338	603.184053	0.275260	0.067836	1.583278
63.071090	614.284895	0.280265	0.067684	1.593899
64.300892	625.240351	0.285269	0.067451	1.604460
65.065038	636.387732	0.290274	0.067305	1.614974
65.623448	647.470524	0.295279	0.067197	1.625294
66.332943	658.503468	0.300283	0.067061	1.635552
66.926612	669.542273	0.305288	0.066947	1.645714
68.052672	680.526654	0.310293	0.066733	1.655935
68.709831	691.621388	0.315298	0.066607	1.666041
69.805763	702.643593	0.320302	0.066399	1.676161
70.292598	713.749318	0.325307	0.066305	1.686102
71.433996	724.715356	0.330312	0.066088	1.696066
72.100921	735.835704	0.335317	0.065960	1.705958
72.723364	746.878083	0.340321	0.065840	1.715713
73.511547	757.876079	0.345326	0.065690	1.725424
74.692896	768.905287	0.350331	0.065465	1.735226
75.256751	779.999457	0.355335	0.065357	1.744842
76.177718	791.024660	0.360340	0.065181	1.754454
76.990369	802.058002	0.365345	0.065026	1.763987
77.857739	813.115203	0.370350	0.064860	1.773505
78.522833	824.165094	0.375354	0.064733	1.782906
79.174825	835.215053	0.380359	0.064608	1.792254
80.010108	846.218215	0.385364	0.064448	1.801568
80.891212	857.269674	0.390369	0.064280	1.810886
81.394950	868.372231	0.395373	0.064183	1.820089
82.090593	879.342025	0.400378	0.064050	1.829193
82.871349	890.411593	0.405383	0.063900	1.838356
83.553697	901.428665	0.410387	0.063770	1.847404
84.149512	912.516195	0.415392	0.063655	1.856439
84.885529	923.505034	0.420397	0.063514	1.865391
85.425384	934.583489	0.425402	0.063410	1.874316
86.041453	945.609676	0.430406	0.063292	1.883179
86.887187	956.592664	0.435411	0.063131	1.892028
87.981495	967.624203	0.440416	0.062923	1.900942
88.748557	978.669291	0.445421	0.062776	1.909735
89.704996	989.724659	0.450425	0.062594	1.918547
90.111514	1000.819262	0.455430	0.062515	1.927201
90.732083	1011.843661	0.460435	0.062395	1.935819
91.565807	1022.787274	0.465439	0.062236	1.944394
92.674337	1033.836693	0.470444	0.062026	1.953083
93.117203	1044.949221	0.475449	0.061940	1.961607
93.901423	1055.954987	0.480454	0.061790	1.970102
94.217296	1067.044180	0.485458	0.061728	1.978502
95.007513	1077.998123	0.490463	0.061577	1.986888
95.506698	1089.083394	0.495468	0.061480	1.995260
96.308989	1100.086870	0.500472	0.061327	2.003615
96.952102	1111.107945	0.505477	0.061204	2.011906
97.595131	1122.173513	0.510482	0.061080	2.020197
98.270252	1133.170906	0.515487	0.060951	2.028411
99.044644	1144.216647	0.520491	0.060803	2.036652
99.677603	1155.249477	0.525496	0.060681	2.044815
100.561694	1166.263599	0.530501	0.060513	2.052993
100.829690	1177.364886	0.535506	0.060460	2.061050
101.434048	1188.360722	0.540510	0.060344	2.069082
101.870878	1199.397811	0.545515	0.060259	2.077072
102.812080	1210.356592	0.550520	0.060080	2.085097
103.492925	1221.449035	0.555524	0.059949	2.093124
104.051257	1232.472576	0.560529	0.059842	2.101041
104.604379	1243.504534	0.565534	0.059735	2.108932
104.867038	1254.592609	0.570539	0.059683	2.116765
105.413939	1265.551115	0.575543	0.059578	2.124545
106.110837	1276.575116	0.580548	0.059444	2.132378
106.645190	1287.625810	0.585553	0.059341	2.140161
107.409609	1298.624653	0.590558	0.059195	2.147935
107.935808	1309.689004	0.595562	0.059094	2.155670
108.580423	1320.694611	0.600567	0.058970	2.163364
109.399822	1331.696706	0.605572	0.058813	2.171069
110.210075	1342.734893	0.610576	0.058659	2.178768
110.824166	1353.802707	0.615581	0.058541	2.186415
111.410556	1364.821413	0.620586	0.058428	2.193996
111.879158	1375.854977	0.625591	0.058337	2.201534
112.525231	1386.859638	0.630595	0.058213	2.209067
112.888767	1397.940976	0.635600	0.058142	2.216561
113.855928	1408.870071	0.640605	0.057958	2.224064
114.551164	1419.950920	0.645610	0.057825	2.231581
114.788759	1431.021146	0.650614	0.057778	2.238964
115.384838	1442.006488	0.655619	0.057663	2.246346
116.051384	1453.020079	0.660624	0.057535	2.253738
116.511049	1464.089325	0.665628	0.057446	2.261097
117.182339	1475.074265	0.670633	0.057318	2.268422
117.677504	1486.113059	0.675638	0.057222	2.275721
118.195105	1497.151732	0.680643	0.057122	2.283000
118.703052	1508.157271	0.685647	0.057024	2.290233
119.461389	1519.175176	0.690652	0.056879	2.297505
119.777108	1530.263659	0.695657	0.056817	2.304704
120.265118	1541.247238	0.700661	0.056723	2.311850
120.812726	1552.261411	0.705666	0.056617	2.319006
121.582129	1563.266378	0.710671	0.056470	2.326181
122.145579	1574.332488	0.715676	0.056362	2.333329
122.709427	1585.333085	0.720680	0.056253	2.340414
123.108662	1596.392116	0.725685	0.056176	2.347479
123.520195	1607.410249	0.730690	0.056096	2.354500
123.986473	1618.432582	0.735695	0.056005	2.361514
124.868591	1629.384968	0.740699	0.055837	2.368549
125.476608	1640.484805	0.745704	0.055720	2.375599
126.021469	1651.492666	0.750709	0.055615	2.382557
126.162217	1662.567461	0.755713	0.055586	2.389454
126.618604	1673.539738	0.760718	0.055498	2.396332
127.312458	1684.545570	0.765723	0.055365	2.403258
128.041217	1695.577819	0.770728	0.055226	2.410188
128.438168	1706.653472	0.775732	0.055148	2.417058
128.894400	1717.625142	0.780737	0.055060	2.423856
129.362691	1728.657948	0.785742	0.054969	2.430675
130.086555	1739.656812	0.790747	0.054831	2.437505
130.624533	1750.719196	0.795751	0.054727	2.444317
131.112554	1761.733942	0.800756	0.054633	2.451071
131.672569	1772.762978	0.805761	0.054525	2.457829
132.082996	1783.772553	0.810765	0.054445	2.464528
132.477306	1794.820314	0.815770	0.054369	2.471228
132.854528	1805.833897	0.820775	0.054295	2.477886
133.350289	1816.854978	0.825780	0.054199	2.484554
133.844952	1827.879943	0.830784	0.054104	2.491205
134.012432	1838.930717	0.835789	0.054070	2.497791
134.647948	1849.896905	0.840794	0.053948	2.504399
135.155022	1860.933689	0.845799	0.053850	2.511007
135.701981	1871.967403	0.850803	0.053744	2.517604
136.089570	1883.005069	0.855808	0.053669	2.524154
136.449150	1894.011887	0.860813	0.053599	2.530665
137.081843	1905.009137	0.865817	0.053477	2.537204
137.778943	1916.037363	0.870822	0.053344	2.543757
138.179032	1927.079136	0.875827	0.053266	2.550244
138.679690	1938.093082	0.880832	0.053169	2.556718
139.106564	1949.148659	0.885836	0.053086	2.563186
139.748220	1960.130928	0.890841	0.052963	2.569634
139.790984	1971.265135	0.895846	0.052953	2.576043
140.200847	1982.189813	0.900850	0.052873	2.582384
140.681506	1993.188799	0.905855	0.052780	2.588764
141.209961	2004.217479	0.910860	0.052678	2.595155
141.732107	2015.239585	0.915865	0.052577	2.601524
142.286953	2026.265445	0.920869	0.052471	2.607886
142.851512	2037.279457	0.925874	0.052362	2.614227
143.585286	2048.274522	0.930879	0.052222	2.620573
143.924540	2059.337008	0.935884	0.052155	2.626870
144.265980	2070.338814	0.940888	0.052088	2.633118
144.808470	2081.330560	0.945893	0.051984	2.639381
145.411239	2092.368443	0.950898	0.051868	2.645667
145.891044	2103.403466	0.955902	0.051775	2.651913
146.264625	2114.438958	0.960907	0.051702	2.658126
146.464744	2125.440131	0.965912	0.051662	2.664275
146.919654	2136.468251	0.970917	0.051574	2.670469
147.060370	2147.508293	0.975921	0.051545	2.676601
147.845818	2158.470501	0.980926	0.051395	2.682788
148.250028	2169.502223	0.985931	0.051316	2.688932
148.617939	2180.558131	0.990936	0.051244	2.695069
148.993232	2191.576368	0.995940	0.051171	2.701173
149.604341	2202.559125	1.000945	0.051054	2.707285
150.063122	2213.628252	1.005950	0.050965	2.713403
150.675212	2224.576356	1.010954	0.050848	2.719468
151.287281	2235.619904	1.015959	0.050730	2.725570
151.954369	2246.676268	1.020964	0.050602	2.731676
152.087609	2257.708452	1.025969	0.050574	2.737664
152.519854	2268.692884	1.030973	0.050490	2.743663
152.838585	2279.743988	1.035978	0.050428	2.749666
153.402454	2290.709481	1.040983	0.050319	2.755651
153.766648	2301.784939	1.045988	0.050248	2.761649
154.340956	2312.779314	1.050992	0.050138	2.767625
154.538238	2323.822588	1.055997	0.050098	2.773551
154.988524	2334.808195	1.061002	0.050011	2.779476
155.387550	2345.847367	1.066006	0.049933	2.785408
156.035457	2356.861108	1.071011	0.049809	2.791355
156.194155	2367.907135	1.076016	0.049776	2.797226
156.969412	2378.849988	1.081021	0.049628	2.803131
157.714982	2389.908582	1.086025	0.049486	2.809080
158.199352	2400.932565	1.091030	0.049392	2.814955
158.529052	2411.985391	1.096035	0.049327	2.820807
158.868706	2422.981483	1.101039	0.049261	2.826619
159.323044	2434.009286	1.106044	0.049173	2.832455
159.673478	2445.011695	1.111049	0.049104	2.838248
159.919638	2456.052509	1.116054	0.049056	2.844032
160.378958	2467.067561	1.121058	0.048967	2.849826
160.835463	2478.069066	1.126063	0.048878	2.855600
161.306764	2489.087005	1.131068	0.048787	2.861373
161.641884	2500.129848	1.136073	0.048722	2.867126
162.089541	2511.138110	1.141077	0.048635	2.872867
162.426715	2522.161030	1.146082	0.048569	2.878586
162.981362	2533.160029	1.151087	0.048462	2.884316
163.314201	2544.218057	1.156091	0.048397	2.890030
163.697649	2555.222876	1.161096	0.048322	2.895714
164.069206	2566.235037	1.166101	0.048250	2.901388
164.374043	2577.255280	1.171106	0.048190	2.907044
164.917137	2588.262467	1.176110	0.048085	2.912720
165.208067	2599.301791	1.181115	0.048028	2.918362
165.572021	2610.283661	1.186120	0.047957	2.923975
166.020785	2621.339107	1.191125	0.047870	2.929627
166.308326	2632.345383	1.196129	0.047813	2.935219
166.842632	2643.352986	1.201134	0.047710	2.940838
167.342577	2654.375312	1.206139	0.047614	2.946449
167.674779	2665.403589	1.211143	0.047549	2.952027
168.000208	2676.422058	1.216148	0.047485	2.957588
168.603260	2687.422950	1.221153	0.047369	2.963171
169.324015	2698.433376	1.226158	0.047231	2.968767
169.581995	2709.500876	1.231162	0.047180	2.974310
169.772409	2720.508456	1.236167	0.047141	2.979804
170.140858	2731.492115	1.241172	0.047069	2.985301
170.641281	2742.545600	1.246177	0.046973	2.990843
170.835161	2753.547604	1.251181	0.046934	2.996304
171.263518	2764.562507	1.256186	0.046851	3.001795
171.733430	2775.569647	1.261191	0.046760	3.007279
171.888707	2786.627324	1.266195	0.046728	3.012731
172.476383	2797.597957	1.271200	0.046615	3.018194
173.162408	2808.606171	1.276205	0.046483	3.023680
173.564233	2819.672571	1.281210	0.046405	3.029143
173.980360	2830.676249	1.286214	0.046324	3.034567
174.346584	2841.711196	1.291219	0.046253	3.039989
174.513685	2852.733284	1.296224	0.046219	3.045367
174.799771	2863.739413	1.301228	0.046163	3.050744
175.148567	2874.742000	1.306233	0.046094	3.056119
175.601772	2885.742195	1.311238	0.046007	3.061499
176.017834	2896.795360	1.316243	0.045926	3.066889
176.293184	2907.801354	1.321247	0.045871	3.072226
176.643802	2918.841425	1.326252	0.045803	3.077582
176.999186	2929.835858	1.331257	0.045733	3.082907
177.415640	2940.868064	1.336262	0.045653	3.088249
177.865451	2951.858932	1.341266	0.045565	3.093567
178.142271	2962.912704	1.346271	0.045511	3.098881
178.470133	2973.901090	1.351276	0.045447	3.104163
178.862527	2984.922929	1.356280	0.045370	3.109460
179.377196	2995.937005	1.361285	0.045271	3.114761
179.790413	3006.979311	1.366290	0.045191	3.120053
179.960473	3017.985862	1.371295	0.045156	3.125284
180.452807	3029.003224	1.376299	0.045061	3.130557
180.743934	3040.010899	1.381304	0.045004	3.135788
180.901414	3051.054743	1.386309	0.044971	3.141009
181.469067	3062.028309	1.391314	0.044862	3.146245
181.589631	3073.091634	1.396318	0.044837	3.151453
181.834732	3084.088107	1.401323	0.044788	3.156637
182.415283	3095.099342	1.406328	0.044676	3.161866
182.808263	3106.110802	1.411332	0.044600	3.167061
183.312468	3117.134990	1.416337	0.044502	3.172268
183.589650	3128.150930	1.421342	0.044448	3.177432
184.151036	3139.165883	1.426347	0.044340	3.182625
184.406689	3150.203839	1.431351	0.044289	3.187780
184.665118	3161.226730	1.436356	0.044238	3.192919
184.930945	3172.237785	1.441361	0.044185	3.198045
185.436326	3183.238311	1.446366	0.044088	3.203190
185.782234	3194.262093	1.451370	0.044020	3.208317
186.109478	3205.284844	1.456375	0.043956	3.213432
186.334973	3216.304712	1.461380	0.043911	3.218524
186.687168	3227.292563	1.466384	0.043842	3.223610
187.127550	3238.336033	1.471389	0.043757	3.228725
187.695004	3249.323088	1.476394	0.043647	3.233823
187.944698	3260.365906	1.481399	0.043598	3.238896
188.354245	3271.371872	1.486403	0.043518	3.243966
188.949792	3282.385726	1.491408	0.043404	3.249055
189.122723	3293.423119	1.496413	0.043369	3.254092
189.708507	3304.408428	1.501417	0.043256	3.259151
190.017455	3315.466258	1.506422	0.043195	3.264199
190.211667	3326.471558	1.511427	0.043156	3.269200
190.639333	3337.478744	1.516432	0.043073	3.274225
190.896219	3348.508624	1.521436	0.043022	3.279230
191.124485	3359.516618	1.526441	0.042977	3.284214
191.549589	3370.534545	1.531446	0.042894	3.289221
192.008148	3381.554543	1.536451	0.042805	3.294224
192.162830	3392.571237	1.541455	0.042774	3.299180
192.515094	3403.585938	1.546460	0.042705	3.304152
193.239504	3414.564566	1.551465	0.042566	3.309148
193.726139	3425.605870	1.556469	0.042472	3.314134
194.042888	3436.642507	1.561474	0.042410	3.319089
194.436842	3447.644479	1.566479	0.042333	3.324031
194.894649	3458.663367	1.571484	0.042245	3.328981
195.325652	3469.682760	1.576488	0.042161	3.333920
195.726939	3480.683592	1.581493	0.042083	3.338840
196.237274	3491.712564	1.586498	0.041985	3.343779
196.766864	3502.708299	1.591503	0.041882	3.348698
197.050148	3513.769106	1.596507	0.041827	3.353608
197.268959	3524.770896	1.601512	0.041783	3.358476
197.681942	3535.793796	1.606517	0.041703	3.363371
198.048193	3546.787945	1.611521	0.041631	3.368240
198.552613	3557.807228	1.616526	0.041534	3.373130
198.710054	3568.841355	1.621531	0.041501	3.377977
199.068202	3579.849373	1.626536	0.041432	3.382829
199.528153	3590.859288	1.631540	0.041343	3.387689
199.764929	3601.899290	1.636545	0.041295	3.392526
200.204564	3612.879043	1.641550	0.041210	3.397356
200.655399	3623.921343	1.646555	0.041123	3.402207
200.974713	3634.924421	1.651559	0.041060	3.407018
201.321559	3645.966688	1.656564	0.040992	3.411842
201.646698	3656.929846	1.661569	0.040929	3.416623
201.981930	3668.006411	1.666573	0.040863	3.421447
202.466088	3678.974145	1.671578	0.040769	3.426235
202.758907	3690.039946	1.676583	0.040712	3.431036
202.915425	3701.024295	1.681588	0.040680	3.435779
203.186933	3712.064787	1.686592	0.040626	3.440552
203.554853	3723.055519	1.691597	0.040554	3.445310
204.029226	3734.089924	1.696602	0.040462	3.450092
204.392604	3745.075124	1.701606	0.040392	3.454833
204.798374	3756.126215	1.706611	0.040313	3.459600
205.076669	3767.126336	1.711616	0.040258	3.464325
205.491060	3778.165058	1.716621	0.040177	3.469075
205.712002	3789.147769	1.721625	0.040133	3.473772
205.997133	3800.188189	1.726630	0.040077	3.478494
206.401533	3811.174239	1.731635	0.039998	3.483202
206.988800	3822.207875	1.736640	0.039885	3.487944
206.984885	3833.234772	1.741644	0.039883	3.492608
207.302383	3844.245187	1.746649	0.039821	3.497296
207.684736	3855.242536	1.751654	0.039747	3.501979
207.976787	3866.289326	1.756658	0.039689	3.506667
208.090151	3877.292369	1.761663	0.039665	3.511309
208.335938	3888.330414	1.766668	0.039616	3.515975
208.716932	3899.303274	1.771673	0.039542	3.520623
209.081050	3910.367905	1.776677	0.039471	3.525302
209.416100	3921.345756	1.781682	0.039405	3.529934
209.611447	3932.387558	1.786687	0.039366	3.534571
209.827183	3943.365903	1.791692	0.039323	3.539178
210.607794	3954.387510	1.796696	0.039174	3.543861
210.910694	3965.418149	1.801701	0.039114	3.548487
211.512859	3976.431230	1.806706	0.038998	3.553133
211.782575	3987.450691	1.811710	0.038945	3.557739
211.911806	3998.477458	1.816715	0.038918	3.562326
212.488215	4009.474733	1.821720	0.038807	3.566945
212.684117	4020.510136	1.826725	0.038768	3.571530
213.225674	4031.489439	1.831729	0.038663	3.576126
213.591929	4042.520711	1.836734	0.038592	3.580717
213.604548	4053.577416	1.841739	0.038587	3.585274
214.049283	4064.553366	1.846744	0.038500	3.589839
214.383808	4075.564911	1.851748	0.038435	3.594401
214.814577	4086.594635	1.856753	0.038351	3.598975
215.144992	4097.647369	1.861758	0.038287	3.603541
215.360697	4108.697798	1.866762	0.038243	3.608089
215.645129	4119.686690	1.871767	0.038187	3.612612
215.939792	4130.713661	1.876772	0.038129	3.617147
216.179668	4141.700405	1.881777	0.038082	3.621654
216.518674	4152.753642	1.886781	0.038015	3.626192
216.680093	4163.727761	1.891786	0.037982	3.630674
217.114335	4174.785305	1.896791	0.037898	3.635213
217.240513	4185.771041	1.901795	0.037872	3.639685
217.719069	4196.797170	1.906800	0.037779	3.644205
218.056827	4207.811445	1.911805	0.037713	3.648699
218.532322	4218.842554	1.916810	0.037621	3.653210
218.896852	4229.841242	1.921814	0.037550	3.657689
219.103273	4240.874590	1.926819	0.037509	3.662161
219.530919	4251.867111	1.931824	0.037426	3.666634
219.830996	4262.889202	1.936829	0.037367	3.671099
220.162060	4273.912936	1.941833	0.037302	3.675563
220.486855	4284.930219	1.946838	0.037238	3.680019
220.720244	4295.936836	1.951843	0.037191	3.684455
221.073694	4306.958190	1.956847	0.037122	3.688904
221.224485	4317.968948	1.961852	0.037091	3.693322
221.432787	4329.024115	1.966857	0.037050	3.697759
221.750433	4339.961543	1.971862	0.036987	3.702155
222.323091	4351.014195	1.976866	0.036877	3.706618
222.585374	4362.021955	1.981871	0.036825	3.711025
223.048677	4373.052709	1.986876	0.036735	3.715457
223.164825	4384.064705	1.991881	0.036711	3.719840
223.457788	4395.089483	1.996885	0.036653	3.724242
223.493600	4406.094221	2.001890	0.036644	3.728603
223.974413	4417.104533	2.006895	0.036551	3.733008
