Wed Nov 23 17:12:02 2022

Number of Points = 2200
Depth (nm)	Load (µN)	Time (s)	Depth (V)	Load (V)
-3.171204	1.222918	0.000000	0.120519	0.640868
0.000000	5.200171	0.005005	0.119923	0.652794
3.835713	12.513761	0.010009	0.119201	0.672508
7.896005	22.141264	0.015014	0.118437	0.696812
11.217330	33.084720	0.020019	0.117811	0.722441
13.511748	44.669638	0.025024	0.117378	0.747701
15.307700	56.289621	0.030028	0.117038	0.771840
16.666845	67.910391	0.035033	0.116780	0.794939
17.559616	79.478097	0.040038	0.116610	0.816969
18.240224	90.947669	0.045043	0.116479	0.838104
18.801409	102.331128	0.050047	0.116371	0.858492
19.521633	113.606283	0.055052	0.116233	0.878323
20.085088	124.924674	0.060057	0.116124	0.897689
20.608930	136.197963	0.065061	0.116023	0.916549
20.870242	147.479013	0.070066	0.115972	0.934885
21.355234	158.681682	0.075071	0.115878	0.952875
21.838993	169.873047	0.080076	0.115784	0.970513
24.765063	180.377530	0.085080	0.115233	0.988166
27.728374	191.620583	0.090085	0.114674	1.006621
28.809499	203.166385	0.095090	0.114468	1.024169
29.386231	214.510288	0.100094	0.114357	1.040863
30.355210	225.656673	0.105099	0.114172	1.057219
31.275341	236.783642	0.110104	0.113997	1.073273
32.765333	247.830661	0.115109	0.113715	1.089268
34.073783	258.978578	0.120113	0.113466	1.105077
35.556334	270.108755	0.125118	0.113186	1.120723
36.477089	281.353146	0.130123	0.113010	1.136030
37.691825	292.437651	0.135128	0.112779	1.151067
38.714780	303.579463	0.140132	0.112585	1.165892
39.546705	314.763545	0.145137	0.112426	1.180495
40.267422	325.900936	0.150142	0.112288	1.194809
40.985026	337.033208	0.155146	0.112150	1.208946
42.070759	348.042210	0.160151	0.111944	1.222933
43.280246	359.124552	0.165156	0.111714	1.236904
44.146949	370.272975	0.170161	0.111549	1.250648
45.210692	381.357840	0.175165	0.111346	1.264251
45.772983	392.534190	0.180170	0.111238	1.277602
47.345254	403.444773	0.185175	0.110940	1.290934
48.920994	414.564104	0.190180	0.110642	1.304368
50.087619	425.699362	0.195184	0.110420	1.317513
50.965220	436.825154	0.200189	0.110253	1.330399
51.782471	447.938594	0.205194	0.110097	1.343123
52.894975	458.951510	0.210198	0.109885	1.355735
53.813173	470.084601	0.215203	0.109710	1.368283
54.504762	481.191666	0.220208	0.109578	1.380600
55.478666	492.231447	0.225213	0.109392	1.392845
56.354101	503.303599	0.230217	0.109225	1.404980
57.135131	514.401928	0.235222	0.109076	1.417001
57.939740	525.442478	0.240227	0.108922	1.428870
58.780091	536.544875	0.245232	0.108762	1.440718
59.620863	547.564860	0.250236	0.108601	1.452384
60.632417	558.638643	0.255241	0.108409	1.464074
61.432652	569.723100	0.260246	0.108256	1.475605
62.346885	580.788254	0.265250	0.108082	1.487068
63.095000	591.849348	0.270255	0.107939	1.498379
64.484153	602.794121	0.275260	0.107675	1.509717
65.251017	613.989597	0.280265	0.107528	1.520997
65.884570	625.064864	0.285269	0.107407	1.532030
66.984118	636.045742	0.290274	0.107198	1.543054
67.925577	647.125298	0.295279	0.107018	1.554039
68.632810	658.197019	0.300283	0.106883	1.564860
69.839508	669.226039	0.305288	0.106654	1.575734
70.672947	680.285977	0.310293	0.106495	1.586437
71.471914	691.385910	0.315298	0.106342	1.597093
72.067742	702.443056	0.320302	0.106227	1.607572
72.941015	713.499143	0.325307	0.106061	1.618073
73.549414	724.525580	0.330312	0.105944	1.628391
74.670481	735.551425	0.335317	0.105731	1.638810
75.219823	746.650768	0.340321	0.105625	1.649046
76.215094	757.652389	0.345326	0.105436	1.659272
76.863878	768.730388	0.350331	0.105311	1.669394
77.923156	779.731045	0.355335	0.105110	1.679514
78.721021	790.798770	0.360340	0.104957	1.689552
79.669094	801.870113	0.365345	0.104777	1.699579
80.299445	812.928228	0.370350	0.104656	1.709437
80.904221	823.982093	0.375354	0.104539	1.719227
81.505313	835.029660	0.380359	0.104424	1.728955
82.398352	846.039928	0.385364	0.104254	1.738684
83.024490	857.099867	0.390369	0.104133	1.748321
83.886565	868.130793	0.395373	0.103969	1.757951
84.547956	879.190015	0.400378	0.103842	1.767492
85.173981	890.255779	0.405383	0.103722	1.776976
85.725765	901.277373	0.410387	0.103615	1.786351
86.813403	912.261119	0.415392	0.103409	1.795802
87.390427	923.344338	0.420397	0.103298	1.805137
88.201152	934.399206	0.425402	0.103143	1.814468
88.553825	945.477972	0.430406	0.103074	1.823639
89.498536	956.417193	0.435411	0.102894	1.832819
90.272464	967.500415	0.440416	0.102746	1.842021
91.054805	978.550874	0.445421	0.102596	1.851153
91.646876	989.618444	0.450425	0.102483	1.860200
92.162952	1000.630520	0.455430	0.102383	1.869138
92.765953	1011.689621	0.460435	0.102267	1.878094
93.396614	1022.710602	0.465439	0.102146	1.886985
94.197818	1033.730557	0.470444	0.101993	1.895880
94.988149	1044.754983	0.475449	0.101842	1.904733
95.347055	1055.878141	0.480454	0.101772	1.913505
95.970179	1066.857521	0.485458	0.101652	1.922197
96.492110	1077.924178	0.490463	0.101552	1.930890
97.189088	1088.926820	0.495468	0.101418	1.939541
97.805855	1099.955667	0.500472	0.101300	1.948152
98.683858	1110.973263	0.505477	0.101132	1.956785
99.085275	1122.072745	0.510482	0.101054	1.965317
99.713710	1133.046973	0.515487	0.100933	1.973776
100.391178	1144.097370	0.520491	0.100804	1.982269
101.060238	1155.137106	0.525496	0.100675	1.990716
101.690914	1166.146376	0.530501	0.100554	1.999094
102.433250	1177.213278	0.535506	0.100412	2.007508
102.774872	1188.274325	0.540510	0.100345	2.015780
103.289463	1199.269129	0.545515	0.100246	2.024013
103.891820	1210.303656	0.550520	0.100130	2.032264
104.582234	1221.315479	0.555524	0.099998	2.040487
105.365394	1232.336758	0.560529	0.099848	2.048707
106.203868	1243.364621	0.565534	0.099688	2.056912
106.802301	1254.417641	0.570539	0.099573	2.065042
107.851897	1265.387802	0.575543	0.099374	2.073192
108.226074	1276.522452	0.580548	0.099301	2.081263
108.843307	1287.514070	0.585553	0.099182	2.089259
109.580551	1298.539222	0.590558	0.099041	2.097277
110.141186	1309.590586	0.595562	0.098933	2.105240
110.496679	1320.621014	0.600567	0.098864	2.113109
111.285122	1331.618393	0.605572	0.098713	2.121029
111.855291	1342.655694	0.610576	0.098603	2.128895
112.405010	1353.705781	0.615581	0.098497	2.136736
112.842561	1364.727448	0.620586	0.098413	2.144502
113.773404	1375.734931	0.625591	0.098235	2.152346
114.205663	1386.787940	0.630595	0.098151	2.160076
114.919832	1397.804591	0.635600	0.098015	2.167819
115.193305	1408.892876	0.640605	0.097961	2.175481
115.774387	1419.856364	0.645610	0.097849	2.183101
116.451114	1430.877867	0.650614	0.097719	2.190757
117.006224	1441.939907	0.655619	0.097612	2.198384
117.635724	1452.933626	0.660624	0.097491	2.205957
118.256941	1463.979490	0.665628	0.097372	2.213536
118.761708	1475.011089	0.670633	0.097275	2.221053
119.483998	1486.020521	0.675638	0.097136	2.228579
119.816305	1497.087605	0.680643	0.097071	2.236031
120.268361	1508.110726	0.685647	0.096984	2.243455
120.792966	1519.121500	0.690652	0.096883	2.250862
121.465752	1530.134853	0.695657	0.096754	2.258279
121.878101	1541.185012	0.700661	0.096673	2.265639
122.509738	1552.174924	0.705666	0.096552	2.272983
123.151126	1563.222591	0.710671	0.096429	2.280343
123.671985	1574.235772	0.715676	0.096329	2.287630
124.129769	1585.291356	0.720680	0.096240	2.294908
124.942122	1596.254917	0.725685	0.096085	2.302180
125.406734	1607.338600	0.730690	0.095995	2.309432
126.016579	1618.333369	0.735695	0.095878	2.316634
126.507474	1629.396422	0.740699	0.095783	2.323832
127.045472	1640.384003	0.745704	0.095679	2.330970
127.815999	1651.404588	0.750709	0.095532	2.338156
128.573357	1662.435177	0.755713	0.095387	2.345323
129.044333	1673.462802	0.760718	0.095296	2.352406
129.892460	1684.465127	0.765723	0.095134	2.359531
130.317637	1695.526079	0.770728	0.095052	2.366582
130.897481	1706.560001	0.775732	0.094940	2.373628
131.486926	1717.568741	0.780737	0.094827	2.380639
131.933209	1728.593819	0.785742	0.094740	2.387609
132.549652	1739.631781	0.790747	0.094622	2.394602
133.184188	1750.631728	0.795751	0.094500	2.401555
133.580988	1761.683567	0.800756	0.094423	2.408471
134.182959	1772.695862	0.805761	0.094307	2.415384
134.716356	1783.702463	0.810765	0.094204	2.422261
135.474499	1794.729931	0.815770	0.094059	2.429175
135.769215	1805.795577	0.820775	0.094001	2.436000
136.214485	1816.799933	0.825780	0.093915	2.442798
136.573416	1827.825136	0.830784	0.093845	2.449573
137.162198	1838.824348	0.835789	0.093732	2.456359
137.552751	1849.882321	0.840794	0.093656	2.463123
137.941771	1860.879751	0.845799	0.093580	2.469830
138.350539	1871.925120	0.850803	0.093501	2.476553
138.862408	1882.933538	0.855808	0.093402	2.483255
139.345933	1893.947995	0.860813	0.093308	2.489937
140.191822	1904.951333	0.865817	0.093147	2.496664
140.666399	1916.008602	0.870822	0.093055	2.503334
141.222788	1927.007236	0.875827	0.092948	2.509966
141.834777	1938.032744	0.880832	0.092831	2.516608
142.150821	1949.090708	0.885836	0.092768	2.523194
142.782526	1960.068600	0.890841	0.092647	2.529776
142.946403	1971.150594	0.895846	0.092614	2.536313
143.489344	1982.135850	0.900850	0.092509	2.542848
143.833864	1993.167050	0.905855	0.092442	2.549356
144.284380	2004.175723	0.910860	0.092355	2.555854
145.004176	2015.183806	0.915865	0.092217	2.562385
145.564421	2026.216182	0.920869	0.092109	2.568884
146.130475	2037.298665	0.925874	0.092000	2.575396
146.447732	2048.264996	0.930879	0.091938	2.581778
147.063142	2059.259020	0.935884	0.091819	2.588216
147.568810	2070.277926	0.940888	0.091722	2.594632
148.121376	2081.297980	0.945893	0.091615	2.601040
148.616588	2092.320338	0.950898	0.091520	2.607424
149.076805	2103.384651	0.955902	0.091431	2.613810
149.243918	2114.378952	0.960907	0.091397	2.620086
149.858131	2125.373451	0.965912	0.091279	2.626429
150.302555	2136.427631	0.970917	0.091193	2.632759
150.631199	2147.433019	0.975921	0.091128	2.639026
150.974662	2158.478053	0.980926	0.091061	2.645303
151.377287	2169.489684	0.985931	0.090983	2.651556
151.730440	2180.519922	0.990936	0.090914	2.657796
152.272618	2191.492231	0.995940	0.090809	2.664023
152.830142	2202.537076	1.000945	0.090702	2.670279
153.340701	2213.553815	1.005950	0.090603	2.676495
153.855396	2224.588208	1.010954	0.090504	2.682708
154.183638	2235.622268	1.015959	0.090440	2.688873
154.711967	2246.608949	1.020964	0.090338	2.695032
155.147894	2257.639988	1.025969	0.090253	2.701186
155.599535	2268.662778	1.030973	0.090166	2.707324
156.102582	2279.697749	1.035978	0.090069	2.713463
156.286706	2290.724453	1.040983	0.090031	2.719529
156.637708	2301.730149	1.045988	0.089963	2.725599
157.179887	2312.740627	1.050992	0.089858	2.731690
157.752310	2323.763966	1.055997	0.089748	2.737780
158.063364	2334.782013	1.061002	0.089687	2.743808
158.499087	2345.810847	1.066006	0.089603	2.749851
158.671957	2356.854584	1.071011	0.089568	2.755843
159.283334	2367.831147	1.076016	0.089450	2.761860
159.868811	2378.852187	1.081021	0.089337	2.767884
160.573111	2389.861858	1.086025	0.089203	2.773908
160.877428	2400.941168	1.091030	0.089143	2.779889
161.139553	2411.921011	1.096035	0.089091	2.785797
161.688668	2422.955485	1.101039	0.088985	2.791770
162.258968	2433.933019	1.106044	0.088875	2.797702
162.920233	2444.969756	1.111049	0.088749	2.803669
163.463616	2456.013910	1.116054	0.088644	2.809607
163.717251	2467.044105	1.121058	0.088594	2.815477
164.081657	2478.057797	1.126063	0.088522	2.821345
164.537773	2489.039002	1.131068	0.088434	2.827198
164.963475	2500.095833	1.136073	0.088352	2.833073
165.354245	2511.107675	1.141077	0.088275	2.838908
165.637977	2522.144199	1.146082	0.088220	2.844725
165.979669	2533.152154	1.151087	0.088153	2.850525
166.539190	2544.141858	1.156091	0.088045	2.856339
167.209924	2555.173119	1.161096	0.087916	2.862180
167.632364	2566.181000	1.166101	0.087834	2.867957
168.163951	2577.219521	1.171106	0.087732	2.873756
168.519330	2588.257940	1.176110	0.087662	2.879515
168.743851	2599.285895	1.181115	0.087618	2.885236
169.102035	2610.286320	1.186120	0.087548	2.890953
169.368713	2621.323121	1.191125	0.087495	2.896662
169.777150	2632.303657	1.196129	0.087416	2.902354
170.316890	2643.310485	1.201134	0.087312	2.908069
170.756362	2654.374674	1.206139	0.087226	2.913785
171.102383	2665.372002	1.211143	0.087159	2.919442
171.627888	2676.371097	1.216148	0.087057	2.925117
172.159098	2687.419364	1.221153	0.086955	2.930806
172.588452	2698.427713	1.226158	0.086872	2.936448
172.680778	2709.475424	1.231162	0.086852	2.942047
173.011381	2720.454198	1.236167	0.086787	2.947637
173.594730	2731.472665	1.241172	0.086675	2.953276
174.138405	2742.492627	1.246177	0.086570	2.958898
175.266474	2753.452180	1.251181	0.086356	2.964568
175.648516	2764.576698	1.256186	0.086281	2.970196
175.859827	2775.568291	1.261191	0.086239	2.975721
176.448383	2786.580661	1.266195	0.086126	2.981303
176.963942	2797.551126	1.271200	0.086026	2.986843
177.287637	2808.643454	1.276205	0.085963	2.992404
177.530072	2819.650350	1.281210	0.085914	2.997900
177.824260	2830.643763	1.286214	0.085856	3.003387
178.309457	2841.691575	1.291219	0.085763	3.008919
178.810097	2852.659317	1.296224	0.085666	3.014403
179.420383	2863.674816	1.301228	0.085549	3.019918
179.999833	2874.731240	1.306233	0.085437	3.025438
180.272373	2885.778615	1.311238	0.085383	3.030897
180.558563	2896.764898	1.316243	0.085327	3.036319
180.981747	2907.760015	1.321247	0.085245	3.041756
181.635328	2918.788076	1.326252	0.085120	3.047233
182.000481	2929.826343	1.331257	0.085048	3.052662
182.196833	2940.845916	1.336262	0.085009	3.058048
182.259282	2951.877581	1.341266	0.084994	3.063411
182.841557	2962.843467	1.346271	0.084882	3.068808
183.212412	2973.895062	1.351276	0.084810	3.074206
183.631617	2984.910632	1.356280	0.084729	3.079585
183.880943	2995.936937	1.361285	0.084679	3.084934
184.240203	3006.949247	1.366290	0.084609	3.090283
184.748133	3017.948484	1.371295	0.084511	3.095638
185.385215	3028.949765	1.376299	0.084389	3.101003
185.810835	3039.989880	1.381304	0.084306	3.106347
186.281463	3051.006023	1.386309	0.084215	3.111677
186.508355	3062.049640	1.391314	0.084170	3.116976
186.490171	3073.074001	1.396318	0.084170	3.122222
186.738004	3084.088763	1.401323	0.084121	3.127492
187.231599	3095.076032	1.406328	0.084026	3.132775
187.684476	3106.107600	1.411332	0.083938	3.138064
188.142900	3117.112359	1.416337	0.083849	3.143332
188.438237	3128.141143	1.421342	0.083791	3.148580
188.663297	3139.155647	1.426347	0.083746	3.153802
189.249632	3150.156692	1.431351	0.083634	3.159060
189.740408	3161.192148	1.436356	0.083539	3.164311
190.198964	3172.214614	1.441361	0.083450	3.169543
190.355894	3183.241522	1.446366	0.083418	3.174727
190.564637	3194.248701	1.451370	0.083376	3.179901
190.865352	3205.260479	1.456375	0.083317	3.185081
191.324698	3216.275600	1.461380	0.083228	3.190275
191.505220	3227.313419	1.466384	0.083191	3.195433
191.774741	3238.323085	1.471389	0.083138	3.200583
192.038219	3249.341071	1.476394	0.083086	3.205726
192.183439	3260.377077	1.481399	0.083056	3.210854
192.319481	3271.353773	1.486403	0.083028	3.215945
192.729124	3282.366590	1.491408	0.082948	3.221082
193.085809	3293.399239	1.496413	0.082878	3.226212
193.392160	3304.435224	1.501417	0.082818	3.231328
193.678461	3315.415907	1.506422	0.082762	3.236409
194.164371	3326.435340	1.511427	0.082668	3.241525
194.753904	3337.456335	1.516432	0.082554	3.246648
195.113809	3348.492033	1.521436	0.082484	3.251739
195.511786	3359.479616	1.526441	0.082407	3.256805
195.684206	3370.549147	1.531446	0.082372	3.261871
195.782481	3381.540682	1.536451	0.082350	3.266884
196.324987	3392.540211	1.541455	0.082246	3.271951
196.804039	3403.554939	1.546460	0.082153	3.277008
197.151011	3414.580989	1.551465	0.082085	3.282045
197.516216	3425.619092	1.556469	0.082014	3.287083
197.757627	3436.614506	1.561474	0.081966	3.292077
198.039764	3447.638755	1.566479	0.081911	3.297082
198.515400	3458.641970	1.571484	0.081819	3.302094
199.232187	3469.644833	1.576488	0.081681	3.307130
199.504936	3480.691149	1.581493	0.081627	3.312121
199.798916	3491.723925	1.586498	0.081570	3.317100
199.992692	3502.725325	1.591503	0.081530	3.322046
200.463656	3513.722367	1.596507	0.081439	3.327017
200.681741	3524.781714	1.601512	0.081396	3.331976
201.155407	3535.741545	1.606517	0.081304	3.336916
201.400787	3546.802642	1.611521	0.081255	3.341865
201.650130	3557.815210	1.616526	0.081206	3.346785
201.885589	3568.829140	1.621531	0.081159	3.351697
202.261033	3579.831089	1.626536	0.081086	3.356614
202.553400	3590.865282	1.631540	0.081028	3.361527
202.991381	3601.876146	1.636545	0.080943	3.366441
203.193182	3612.903611	1.641550	0.080903	3.371326
203.448569	3623.887414	1.646555	0.080852	3.376191
203.729914	3634.920522	1.651559	0.080796	3.381074
204.280030	3645.925481	1.656564	0.080691	3.385970
204.450175	3656.965404	1.661569	0.080656	3.390828
204.542309	3667.981129	1.666573	0.080636	3.395659
204.774133	3678.991996	1.671578	0.080590	3.400497
205.306046	3689.980418	1.676583	0.080487	3.405356
205.625116	3701.031077	1.681588	0.080424	3.410209
205.762626	3712.038735	1.686592	0.080396	3.415014
206.105047	3723.045712	1.691597	0.080329	3.419837
206.391816	3734.066103	1.696602	0.080272	3.424652
206.723582	3745.109195	1.701606	0.080207	3.429476
207.099058	3756.087349	1.706611	0.080134	3.434269
207.531453	3767.115978	1.711616	0.080050	3.439085
207.876471	3778.124679	1.716621	0.079983	3.443875
208.081494	3789.193037	1.721625	0.079942	3.448667
208.351725	3800.137578	1.726630	0.079888	3.453407
208.798747	3811.173464	1.731635	0.079802	3.458200
209.064085	3822.200428	1.736640	0.079749	3.462962
209.288205	3833.237459	1.741644	0.079704	3.467716
209.611974	3844.214083	1.746649	0.079641	3.472449
209.862529	3855.254015	1.751654	0.079591	3.477195
210.388871	3866.249249	1.756658	0.079490	3.481947
210.701507	3877.309403	1.761663	0.079428	3.486695
210.900992	3888.278772	1.766668	0.079388	3.491385
211.216924	3899.303835	1.771673	0.079326	3.496106
211.458987	3910.337161	1.776677	0.079278	3.500815
211.784597	3921.336818	1.781682	0.079214	3.505514
212.169751	3932.369167	1.786687	0.079139	3.510226
212.526165	3943.370608	1.791692	0.079070	3.514916
212.936795	3954.403328	1.796696	0.078990	3.519619
213.332905	3965.406973	1.801701	0.078913	3.524302
213.808950	3976.434962	1.806706	0.078821	3.528998
213.837295	3987.444186	1.811710	0.078813	3.533628
214.310524	3998.458961	1.816715	0.078721	3.538305
214.533010	4009.473578	1.821720	0.078677	3.542948
214.814138	4020.493610	1.826725	0.078621	3.547593
214.973264	4031.511444	1.831729	0.078589	3.552217
215.306922	4042.519585	1.836734	0.078523	3.556851
215.626477	4053.518496	1.841739	0.078461	3.561474
215.985531	4064.549046	1.846744	0.078390	3.566108
216.216498	4075.578620	1.851748	0.078344	3.570721
216.583665	4086.588096	1.856753	0.078273	3.575335
216.775808	4097.624769	1.861758	0.078234	3.579934
217.049138	4108.684070	1.866762	0.078180	3.584546
217.213448	4119.673996	1.871767	0.078146	3.589112
217.747036	4130.673878	1.876772	0.078044	3.593716
218.242236	4141.725938	1.881777	0.077948	3.598332
218.801019	4152.723255	1.886781	0.077840	3.602927
218.914384	4163.765135	1.891786	0.077816	3.607484
219.264326	4174.726483	1.896791	0.077748	3.612029
219.596137	4185.775291	1.901795	0.077683	3.616602
220.080149	4196.774799	1.906800	0.077589	3.621165
220.596637	4207.809691	1.911805	0.077490	3.625741
220.984651	4218.801645	1.916810	0.077414	3.630279
221.478564	4229.823810	1.921814	0.077319	3.634835
221.912877	4240.837848	1.926819	0.077235	3.639376
222.273310	4251.867300	1.931824	0.077164	3.643909
222.773186	4262.862217	1.936829	0.077068	3.648437
222.923815	4273.936346	1.941833	0.077037	3.652955
223.426547	4284.894719	1.946838	0.076940	3.657457
223.615522	4295.948673	1.951843	0.076901	3.661959
223.937592	4306.932555	1.956847	0.076838	3.666441
224.314030	4317.969856	1.961852	0.076765	3.670945
224.479142	4328.982535	1.966857	0.076731	3.675411
224.821383	4339.987558	1.971862	0.076664	3.679888
225.218781	4351.019653	1.976866	0.076587	3.684375
225.369168	4362.040570	1.981871	0.076556	3.688827
225.548434	4373.044799	1.986876	0.076520	3.693269
225.742643	4384.072516	1.991881	0.076481	3.697717
226.010785	4395.063111	1.996885	0.076427	3.702152
226.134679	4406.104956	2.001890	0.076402	3.706588
226.322629	4417.108216	2.006895	0.076364	3.711009
