Wed Nov 23 19:44:20 2022

Number of Points = 2200
Depth (nm)	Load (µN)	Time (s)	Depth (V)	Load (V)
-6.356050	0.600650	0.000000	0.012498	1.022195
0.000000	6.398104	0.005005	0.011304	1.033855
5.623765	15.747351	0.010009	0.010247	1.049987
9.719285	26.802145	0.015014	0.009475	1.067443
12.430599	38.246842	0.020019	0.008964	1.084452
14.305626	49.636766	0.025024	0.008609	1.100711
15.745016	60.919215	0.030028	0.008336	1.116379
16.919339	72.146002	0.035033	0.008113	1.131630
17.873636	83.354658	0.040038	0.007931	1.146551
18.552148	94.513235	0.045043	0.007801	1.161087
19.184549	105.666051	0.050047	0.007680	1.175414
19.827321	116.775511	0.055052	0.007556	1.189520
20.542170	127.882517	0.060057	0.007420	1.203489
21.040089	139.008881	0.065061	0.007323	1.217225
21.675909	150.109443	0.070066	0.007201	1.230837
22.113966	161.228627	0.075071	0.007116	1.244235
22.534736	172.351320	0.080076	0.007035	1.257488
25.569075	182.626575	0.085080	0.006463	1.270725
32.481293	193.359239	0.090085	0.005163	1.285965
34.220054	205.212903	0.095090	0.004834	1.300158
35.353591	216.545948	0.100094	0.004618	1.313368
36.374436	227.646820	0.105099	0.004424	1.326142
37.663259	238.695438	0.110104	0.004179	1.338844
38.792538	249.765475	0.115109	0.003965	1.351386
40.015970	260.869568	0.120113	0.003733	1.363885
41.047957	271.976729	0.125118	0.003536	1.376199
42.165092	283.036774	0.130123	0.003324	1.388386
43.271813	294.091033	0.135128	0.003113	1.400456
44.435591	305.177188	0.140132	0.002892	1.412477
45.502649	316.244343	0.145137	0.002689	1.424340
46.697691	327.312557	0.150142	0.002462	1.436153
47.622820	338.409106	0.155146	0.002286	1.447798
48.529815	349.514032	0.160151	0.002113	1.459352
49.395424	360.553359	0.165156	0.001948	1.470735
50.397345	371.608844	0.170161	0.001757	1.482094
51.313368	382.674155	0.175165	0.001583	1.493345
51.978658	393.792724	0.180170	0.001455	1.504476
52.931303	404.765584	0.185175	0.001273	1.515483
54.267501	415.800967	0.190180	0.001020	1.526603
55.102865	426.914793	0.195184	0.000861	1.537546
56.156320	437.950041	0.200189	0.000660	1.548410
57.003862	449.022991	0.205194	0.000498	1.559164
58.014616	460.085593	0.210198	0.000306	1.569888
58.822939	471.157507	0.215203	0.000152	1.580481
59.634455	482.201833	0.220208	-0.000003	1.590979
60.439399	493.261373	0.225213	-0.000157	1.601419
61.450362	504.278967	0.230217	-0.000350	1.611819
62.085682	515.415845	0.235222	-0.000472	1.622140
62.842953	526.404530	0.240227	-0.000616	1.632300
63.674484	537.457793	0.245232	-0.000775	1.642478
64.208769	548.540527	0.250236	-0.000878	1.652526
64.901726	559.558743	0.255241	-0.001011	1.662506
65.845063	570.571096	0.260246	-0.001191	1.672498
66.737184	581.627414	0.265250	-0.001361	1.682453
67.430353	592.716440	0.270255	-0.001494	1.692317
68.093364	603.771335	0.275260	-0.001621	1.702084
68.732352	614.805817	0.280265	-0.001743	1.711770
69.645738	625.793507	0.285269	-0.001918	1.721444
70.292396	636.898620	0.290274	-0.002042	1.731084
71.042973	647.923209	0.295279	-0.002185	1.740633
71.670193	658.980515	0.300283	-0.002306	1.750120
72.304830	670.022236	0.305288	-0.002427	1.759545
73.108654	681.029361	0.310293	-0.002581	1.768940
74.027049	692.082315	0.315298	-0.002756	1.778356
74.580348	703.127758	0.320302	-0.002863	1.787611
75.219574	714.191190	0.325307	-0.002985	1.796857
75.741873	725.267063	0.330312	-0.003086	1.806033
76.645079	736.167663	0.335317	-0.003258	1.815127
77.589568	747.287986	0.340321	-0.003438	1.824365
78.051332	758.366671	0.345326	-0.003528	1.833387
78.654735	769.382390	0.350331	-0.003644	1.842354
79.293220	780.418141	0.355335	-0.003766	1.851303
80.124620	791.428418	0.360340	-0.003925	1.860241
80.725701	802.501993	0.365345	-0.004040	1.869123
81.131920	813.555382	0.370350	-0.004119	1.877894
81.686275	824.575923	0.375354	-0.004226	1.886638
82.247129	835.599656	0.380359	-0.004334	1.895346
82.825021	846.628754	0.385364	-0.004445	1.904023
83.567649	857.664054	0.390369	-0.004587	1.912709
84.153442	868.718575	0.395373	-0.004700	1.921328
84.634473	879.754065	0.400378	-0.004793	1.929866
85.313132	890.773705	0.405383	-0.004923	1.938407
85.995669	901.785357	0.410387	-0.005054	1.946904
86.581818	912.841480	0.415392	-0.005166	1.955373
87.187725	923.873144	0.420397	-0.005283	1.963792
87.883828	934.908249	0.425402	-0.005416	1.972200
88.248092	945.975208	0.430406	-0.005487	1.980511
88.557813	957.008197	0.435411	-0.005548	1.988748
89.153589	968.001794	0.440416	-0.005663	1.996995
89.618682	979.067232	0.445421	-0.005753	2.005227
90.341031	990.046943	0.450425	-0.005891	2.013427
91.099374	1001.094723	0.455430	-0.006036	2.021652
91.331046	1012.176218	0.460435	-0.006082	2.029737
91.872614	1023.172007	0.465439	-0.006187	2.037805
92.614600	1034.204050	0.470444	-0.006329	2.045916
93.301958	1045.206987	0.475449	-0.006460	2.053961
93.838149	1056.291029	0.480454	-0.006564	2.061994
94.121813	1067.332198	0.485458	-0.006620	2.069905
94.743020	1078.333789	0.490463	-0.006739	2.077839
95.314687	1089.363825	0.495468	-0.006849	2.085751
95.929652	1100.384665	0.500472	-0.006967	2.093636
96.441830	1111.422238	0.505477	-0.007066	2.101479
97.008154	1122.451055	0.510482	-0.007175	2.109299
97.330060	1133.521934	0.515487	-0.007238	2.117061
97.743794	1144.527121	0.520491	-0.007318	2.124772
98.358080	1155.502902	0.525496	-0.007436	2.132481
98.942300	1166.592374	0.530501	-0.007549	2.140232
99.512251	1177.560922	0.535506	-0.007658	2.147870
100.019191	1188.660638	0.540510	-0.007756	2.155555
100.531123	1199.656284	0.545515	-0.007855	2.163143
101.069641	1210.675556	0.550520	-0.007959	2.170727
101.745270	1221.691481	0.555524	-0.008088	2.178313
102.468176	1232.734551	0.560529	-0.008227	2.185901
102.818615	1243.774683	0.565534	-0.008295	2.193376
103.139550	1254.828404	0.570539	-0.008358	2.200829
103.529061	1265.823291	0.575543	-0.008434	2.208233
104.358413	1276.812192	0.580548	-0.008592	2.215705
104.907306	1287.874571	0.585553	-0.008698	2.223139
105.466847	1298.890659	0.590558	-0.008806	2.230519
105.827363	1309.961485	0.595562	-0.008876	2.237867
106.281082	1320.943215	0.600567	-0.008964	2.245153
106.893860	1331.983604	0.605572	-0.009082	2.252488
107.153503	1343.051577	0.610576	-0.009133	2.259740
107.763410	1354.004360	0.615581	-0.009250	2.266971
108.188603	1365.082960	0.620586	-0.009333	2.274219
108.601969	1376.086491	0.625591	-0.009413	2.281393
109.048456	1387.116009	0.630595	-0.009500	2.288569
109.721061	1398.108921	0.635600	-0.009628	2.295746
110.370338	1409.128210	0.640605	-0.009753	2.302913
110.826152	1420.209677	0.645610	-0.009841	2.310056
110.996386	1431.232016	0.650614	-0.009876	2.317080
111.309216	1442.265444	0.655619	-0.009937	2.324118
111.706689	1453.267769	0.660624	-0.010015	2.331134
112.267487	1464.285047	0.665628	-0.010123	2.338172
112.870195	1475.295577	0.670633	-0.010238	2.345193
113.068544	1486.384342	0.675638	-0.010278	2.352158
113.509094	1497.353350	0.680643	-0.010364	2.359078
113.909735	1508.395154	0.685647	-0.010442	2.366014
114.213238	1519.424543	0.690652	-0.010501	2.372902
114.831363	1530.409489	0.695657	-0.010620	2.379807
115.270921	1541.466878	0.700661	-0.010705	2.386700
115.887317	1552.469621	0.705666	-0.010824	2.393576
116.159018	1563.529497	0.710671	-0.010877	2.400396
116.708508	1574.528366	0.715676	-0.010983	2.407217
117.303536	1585.544054	0.720680	-0.011098	2.414036
117.857943	1596.545871	0.725685	-0.011204	2.420820
118.193699	1607.614164	0.730690	-0.011270	2.427582
118.258603	1618.692210	0.735695	-0.011285	2.434277
118.709009	1629.610967	0.740699	-0.011372	2.440934
119.401713	1640.656299	0.745704	-0.011505	2.447696
120.057672	1651.664489	0.750709	-0.011631	2.454410
120.613378	1662.708773	0.755713	-0.011738	2.461107
120.935978	1673.758625	0.760718	-0.011801	2.467744
121.346831	1684.774638	0.765723	-0.011881	2.474360
121.622845	1695.799428	0.770728	-0.011935	2.480937
122.127645	1706.796110	0.775732	-0.012033	2.487524
122.718002	1717.812917	0.780737	-0.012146	2.494122
123.196625	1728.853198	0.785742	-0.012239	2.500695
123.596571	1739.870014	0.790747	-0.012317	2.507222
123.917441	1750.945782	0.795751	-0.012380	2.513751
124.205659	1761.897713	0.800756	-0.012436	2.520185
124.941278	1772.917745	0.805761	-0.012577	2.526726
125.410168	1783.980034	0.810765	-0.012668	2.533224
125.596954	1795.008439	0.815770	-0.012706	2.539633
125.962138	1805.993274	0.820775	-0.012777	2.546034
126.493356	1817.036687	0.825780	-0.012879	2.552484
126.867119	1828.061449	0.830784	-0.012952	2.558877
127.379544	1839.072112	0.835789	-0.013051	2.565272
127.710435	1850.104483	0.840794	-0.013116	2.571629
128.142689	1861.185291	0.845799	-0.013200	2.578017
128.273971	1872.169333	0.850803	-0.013227	2.584279
128.674936	1883.168141	0.855808	-0.013305	2.590584
129.311497	1894.145301	0.860813	-0.013427	2.596903
129.539772	1905.240123	0.865817	-0.013473	2.603200
130.062415	1916.190657	0.870822	-0.013574	2.609453
130.394136	1927.272957	0.875827	-0.013639	2.615730
130.857045	1938.233203	0.880832	-0.013728	2.621948
131.550783	1949.282430	0.885836	-0.013861	2.628242
131.983503	1960.281572	0.890841	-0.013945	2.634446
132.434509	1971.341894	0.895846	-0.014032	2.640672
132.780718	1982.354617	0.900850	-0.014100	2.646839
133.168960	1993.395659	0.905855	-0.014176	2.653014
133.598329	2004.373131	0.910860	-0.014259	2.659148
134.086832	2015.402590	0.915865	-0.014353	2.665305
134.572951	2026.435064	0.920869	-0.014447	2.671450
134.657145	2037.483522	0.925874	-0.014466	2.677520
135.016873	2048.461914	0.930879	-0.014536	2.683585
135.593501	2059.455429	0.935884	-0.014647	2.689682
136.036340	2070.469848	0.940888	-0.014733	2.695753
136.910891	2081.473480	0.945893	-0.014900	2.701879
137.438605	2092.522095	0.950898	-0.015001	2.707955
137.856171	2103.558669	0.955902	-0.015082	2.713993
138.179583	2114.578747	0.960907	-0.015146	2.719992
138.508177	2125.593488	0.965912	-0.015210	2.725976
139.271373	2136.583521	0.970917	-0.015356	2.732007
139.944420	2147.616051	0.975921	-0.015485	2.738032
140.238270	2158.648350	0.980926	-0.015543	2.743980
140.596211	2169.690140	0.985931	-0.015613	2.749930
140.634822	2180.706624	0.990936	-0.015623	2.755801
141.200337	2191.705306	0.995940	-0.015732	2.761738
141.748182	2202.716793	1.000945	-0.015837	2.767665
142.191291	2213.743341	1.005950	-0.015923	2.773570
142.646166	2224.752967	1.010954	-0.016011	2.779456
142.894816	2235.803927	1.015959	-0.016061	2.785317
143.409680	2246.808621	1.020964	-0.016160	2.791185
144.038309	2257.827327	1.025969	-0.016281	2.797066
144.389637	2268.846357	1.030973	-0.016349	2.802890
144.886538	2279.855480	1.035978	-0.016445	2.808720
145.109569	2290.914933	1.040983	-0.016490	2.814519
145.352755	2301.904695	1.045988	-0.016538	2.820274
145.949501	2312.911825	1.050992	-0.016653	2.826083
146.433456	2323.949491	1.055997	-0.016746	2.831877
146.733570	2334.963822	1.061002	-0.016805	2.837618
146.967950	2345.996902	1.066006	-0.016852	2.843347
147.192556	2357.020328	1.071011	-0.016897	2.849057
147.691100	2368.019977	1.076016	-0.016993	2.854788
148.192741	2379.017601	1.081021	-0.017090	2.860506
148.779223	2390.050192	1.086025	-0.017203	2.866243
149.476931	2401.075669	1.091030	-0.017337	2.871983
149.724098	2412.107343	1.096035	-0.017386	2.877644
150.163065	2423.105840	1.101039	-0.017471	2.883306
150.558821	2434.150816	1.106044	-0.017548	2.888975
151.012594	2445.153297	1.111049	-0.017636	2.894619
151.419106	2456.184226	1.116054	-0.017715	2.900260
151.738594	2467.183845	1.121058	-0.017777	2.905860
152.115305	2478.231005	1.126063	-0.017851	2.911482
152.390449	2489.225291	1.131068	-0.017905	2.917051
152.901622	2500.244281	1.136073	-0.018004	2.922658
153.399398	2511.249796	1.141077	-0.018100	2.928245
153.747974	2522.296075	1.146082	-0.018168	2.933819
154.036882	2533.306119	1.151087	-0.018225	2.939356
154.297576	2544.336417	1.156091	-0.018277	2.944887
154.755560	2555.329747	1.161096	-0.018365	2.950420
155.156914	2566.368346	1.166101	-0.018443	2.955956
155.623489	2577.381830	1.171106	-0.018534	2.961478
155.984259	2588.402912	1.176110	-0.018604	2.966979
156.394847	2599.403183	1.181115	-0.018684	2.972466
157.053154	2610.390651	1.186120	-0.018810	2.977973
157.873887	2621.426483	1.191125	-0.018967	2.983518
158.531544	2632.468624	1.196129	-0.019093	2.989032
158.680253	2643.500163	1.201134	-0.019123	2.994455
158.869734	2654.535122	1.206139	-0.019162	2.999876
159.013603	2665.540559	1.211143	-0.019191	3.005265
159.292186	2676.558167	1.216148	-0.019246	3.010671
159.727132	2687.539953	1.221153	-0.019331	3.016072
160.145502	2698.588101	1.226158	-0.019412	3.021494
160.553793	2709.575706	1.231162	-0.019491	3.026875
160.944768	2720.634393	1.236167	-0.019567	3.032278
161.171324	2731.627731	1.241172	-0.019613	3.037616
161.608065	2742.647915	1.246177	-0.019697	3.042987
161.922276	2753.676546	1.251181	-0.019759	3.048336
162.506307	2764.680886	1.256186	-0.019871	3.053702
162.623629	2775.722983	1.261191	-0.019896	3.059010
162.884026	2786.737233	1.266195	-0.019948	3.064316
163.222778	2797.726622	1.271200	-0.020014	3.069612
163.673060	2808.764500	1.276205	-0.020101	3.074937
163.959458	2819.780687	1.281210	-0.020158	3.080220
164.528139	2830.793574	1.286214	-0.020267	3.085532
164.726540	2841.826366	1.291219	-0.020307	3.090792
165.080338	2852.825581	1.296224	-0.020376	3.096049
165.292949	2863.841982	1.301228	-0.020419	3.101285
165.707437	2874.856677	1.306233	-0.020499	3.106539
166.171901	2885.875059	1.311238	-0.020589	3.111794
166.697845	2896.895105	1.316243	-0.020691	3.117048
166.976291	2907.908692	1.321247	-0.020746	3.122257
167.399659	2918.951668	1.326252	-0.020828	3.127490
167.833537	2929.950397	1.331257	-0.020912	3.132696
168.187753	2940.972545	1.336262	-0.020981	3.137892
168.325593	2951.991053	1.341266	-0.021010	3.143049
168.899875	2962.999891	1.346271	-0.021120	3.148252
169.084617	2974.025978	1.351276	-0.021158	3.153401
169.489699	2985.041518	1.356280	-0.021236	3.158567
170.109914	2996.028838	1.361285	-0.021355	3.163741
170.624350	3007.082573	1.366290	-0.021455	3.168922
170.957883	3018.086569	1.371295	-0.021520	3.174047
171.290207	3029.131425	1.376299	-0.021585	3.179183
171.594153	3040.107698	1.381304	-0.021645	3.184275
172.037499	3051.141562	1.386309	-0.021731	3.189404
172.432076	3062.154010	1.391314	-0.021808	3.194508
172.972732	3073.196662	1.396318	-0.021912	3.199637
173.180060	3084.192304	1.401323	-0.021953	3.204692
173.567115	3095.231482	1.406328	-0.022029	3.209783
173.880471	3106.208461	1.411332	-0.022090	3.214828
174.500684	3117.226887	1.416337	-0.022209	3.219923
174.811870	3128.263270	1.421342	-0.022270	3.224978
175.272559	3139.294814	1.426347	-0.022360	3.230043
175.397377	3150.305761	1.431351	-0.022386	3.235046
175.783692	3161.315229	1.436356	-0.022461	3.240075
176.234700	3172.304901	1.441361	-0.022548	3.245096
176.644667	3183.367514	1.446366	-0.022628	3.250136
176.858116	3194.363929	1.451370	-0.022671	3.255113
177.193904	3205.384011	1.456375	-0.022736	3.260109
177.540054	3216.382162	1.461380	-0.022804	3.265088
177.930280	3227.441324	1.466384	-0.022880	3.270093
178.354625	3238.413777	1.471389	-0.022962	3.275056
178.944573	3249.435030	1.476394	-0.023076	3.280054
179.031486	3260.477163	1.481399	-0.023095	3.284990
179.376320	3271.487703	1.486403	-0.023162	3.289936
179.710640	3282.497077	1.491408	-0.023228	3.294874
180.202365	3293.522137	1.496413	-0.023323	3.299831
180.403339	3304.525704	1.501417	-0.023363	3.304734
180.888363	3315.527254	1.506422	-0.023457	3.309664
181.566898	3326.557239	1.511427	-0.023587	3.314624
182.197209	3337.577032	1.516432	-0.023708	3.319566
182.677867	3348.586766	1.521436	-0.023801	3.324477
183.139664	3359.625695	1.526441	-0.023890	3.329392
183.389532	3370.625367	1.531446	-0.023940	3.334255
183.709390	3381.669304	1.536451	-0.024003	3.339140
184.133218	3392.639781	1.541455	-0.024085	3.343997
184.534855	3403.690739	1.546460	-0.024163	3.348880
184.911468	3414.693732	1.551465	-0.024236	3.353732
185.261985	3425.731831	1.556469	-0.024305	3.358589
185.347112	3436.728078	1.561474	-0.024324	3.363388
185.852299	3447.756590	1.566479	-0.024421	3.368246
185.981683	3458.775202	1.571484	-0.024448	3.373046
186.319000	3469.788873	1.576488	-0.024514	3.377863
186.848615	3480.766239	1.581493	-0.024616	3.382680
187.377928	3491.814047	1.586498	-0.024718	3.387521
187.807606	3502.823500	1.591503	-0.024802	3.392326
188.054932	3513.857810	1.596507	-0.024851	3.397113
188.526161	3524.851345	1.601512	-0.024942	3.401902
188.938246	3535.884558	1.606517	-0.025022	3.406695
189.284612	3546.887213	1.611521	-0.025090	3.411460
189.652282	3557.919343	1.616526	-0.025161	3.416233
190.035528	3568.919149	1.621531	-0.025236	3.420988
190.450038	3579.966885	1.626536	-0.025317	3.425759
190.484521	3590.973930	1.631540	-0.025326	3.430462
190.902159	3601.985385	1.636545	-0.025407	3.435206
191.115820	3612.999117	1.641550	-0.025450	3.439920
191.322004	3624.033900	1.646555	-0.025491	3.444635
191.764879	3635.020930	1.651559	-0.025577	3.449352
192.149358	3646.061616	1.656564	-0.025652	3.454078
192.429952	3657.053406	1.661569	-0.025707	3.458764
192.962904	3668.062660	1.666573	-0.025810	3.463481
193.216822	3679.105614	1.671578	-0.025860	3.468173
193.518754	3690.111321	1.676583	-0.025920	3.472848
194.045929	3701.114923	1.681588	-0.026021	3.477543
194.407011	3712.125879	1.686592	-0.026092	3.482214
194.944411	3723.152835	1.691597	-0.026195	3.486907
195.320750	3734.175840	1.696602	-0.026269	3.491573
195.601413	3745.174415	1.701606	-0.026324	3.496211
196.024942	3756.213142	1.706611	-0.026406	3.500876
196.395007	3767.213491	1.711616	-0.026478	3.505513
196.927419	3778.238501	1.716621	-0.026581	3.510172
197.086489	3789.259398	1.721625	-0.026614	3.514781
197.503649	3800.287908	1.726630	-0.026695	3.519416
197.682233	3811.287033	1.731635	-0.026731	3.524006
198.018709	3822.336936	1.736640	-0.026797	3.528629
198.195249	3833.308480	1.741644	-0.026833	3.533195
198.353955	3844.349025	1.746649	-0.026865	3.537782
198.520836	3855.351198	1.751654	-0.026899	3.542348
198.788547	3866.373056	1.756658	-0.026952	3.546928
199.021739	3877.370968	1.761663	-0.026999	3.551487
199.367880	3888.405932	1.766668	-0.027066	3.556069
199.642396	3899.403293	1.771673	-0.027121	3.560621
199.961524	3910.439510	1.776677	-0.027183	3.565188
200.116280	3921.448980	1.781682	-0.027215	3.569720
200.745523	3932.440691	1.786687	-0.027336	3.574292
201.149470	3943.455469	1.791692	-0.027414	3.578842
201.858746	3954.486286	1.796696	-0.027550	3.583426
201.893981	3965.524456	1.801701	-0.027559	3.587933
202.435588	3976.515698	1.806706	-0.027664	3.592471
202.759882	3987.537844	1.811710	-0.027727	3.596992
203.241608	3998.526057	1.816715	-0.027820	3.601510
203.874398	4009.568336	1.821720	-0.027942	3.606061
204.213828	4020.586015	1.826725	-0.028008	3.610565
204.526772	4031.590075	1.831729	-0.028070	3.615054
204.819719	4042.627307	1.836734	-0.028127	3.619549
205.154133	4053.624998	1.841739	-0.028193	3.624027
205.784295	4064.638835	1.846744	-0.028314	3.628538
206.030015	4075.669364	1.851748	-0.028363	3.633008
206.514315	4086.696481	1.856753	-0.028456	3.637497
206.615929	4097.729042	1.861758	-0.028478	3.641942
207.115017	4108.769236	1.866762	-0.028575	3.646426
207.194286	4119.772720	1.871767	-0.028592	3.650846
207.657759	4130.782950	1.876772	-0.028682	3.655304
207.839858	4141.806761	1.881777	-0.028719	3.659731
207.969406	4152.839110	1.886781	-0.028746	3.664152
208.272560	4163.834683	1.891786	-0.028805	3.668570
208.391072	4174.886654	1.896791	-0.028830	3.672987
208.758126	4185.873668	1.901795	-0.028902	3.677398
209.103555	4196.886923	1.906800	-0.028969	3.681812
209.282908	4207.912996	1.911805	-0.029006	3.686208
209.582048	4218.926669	1.916810	-0.029065	3.690607
209.778260	4229.914310	1.921814	-0.029104	3.694979
210.146883	4240.923971	1.926819	-0.029176	3.699373
210.610835	4251.964959	1.931824	-0.029266	3.703783
210.935692	4262.974106	1.936829	-0.029330	3.708162
211.115472	4274.002481	1.941833	-0.029366	3.712527
211.319183	4285.030656	1.946838	-0.029407	3.716890
211.482564	4296.025215	1.951843	-0.029440	3.721231
212.041196	4307.028395	1.956847	-0.029548	3.725610
212.325961	4318.050443	1.961852	-0.029604	3.729963
212.591066	4329.077137	1.966857	-0.029657	3.734311
212.919242	4340.073530	1.971862	-0.029721	3.738648
