Fri Jan 13 17:27:19 2023

Number of Points = 3000
Depth (nm)	Load (µN)	Time (s)	Depth (V)	Load (V)
-2.740879	1.418910	0.000000	-0.019070	1.106589
0.000000	4.503611	0.005005	-0.019585	1.111970
2.383924	9.243166	0.010010	-0.020033	1.119312
4.361799	15.103617	0.015014	-0.020406	1.127863
5.908561	21.200991	0.020019	-0.020698	1.136449
7.030563	27.325622	0.025024	-0.020910	1.144806
8.171521	33.378385	0.030029	-0.021125	1.153019
9.198916	39.441150	0.035034	-0.021320	1.161135
10.242262	45.492891	0.040038	-0.021517	1.169187
11.129350	51.555353	0.045043	-0.021685	1.177126
12.014614	57.621159	0.050048	-0.021852	1.185015
12.802990	63.644419	0.055053	-0.022002	1.192756
13.677465	69.690578	0.060058	-0.022167	1.200512
14.429990	75.724210	0.065062	-0.022310	1.208150
15.198336	81.786332	0.070067	-0.022456	1.215780
15.588993	87.888238	0.075072	-0.022531	1.223246
16.324283	93.862082	0.080077	-0.022670	1.230663
16.959276	99.894161	0.085082	-0.022791	1.238061
17.603341	105.937147	0.090086	-0.022913	1.245432
18.250307	111.959075	0.095091	-0.023036	1.252735
18.931156	118.003905	0.100096	-0.023165	1.260037
19.431924	124.047226	0.105101	-0.023261	1.267220
20.200311	130.038427	0.110106	-0.023406	1.274413
20.629480	136.123246	0.115110	-0.023488	1.281532
21.268294	142.126437	0.120115	-0.023610	1.288605
21.715953	148.186956	0.125120	-0.023695	1.295626
22.289416	154.234571	0.130125	-0.023804	1.302646
22.706446	160.278729	0.135130	-0.023884	1.309560
23.294706	166.253642	0.140134	-0.023996	1.316431
23.698323	172.296660	0.145139	-0.024073	1.323266
24.169137	178.323542	0.150144	-0.024163	1.330075
24.701396	184.341271	0.155149	-0.024264	1.336864
25.297929	190.351367	0.160154	-0.024378	1.343636
25.689795	196.394426	0.165158	-0.024453	1.350328
26.266523	202.401070	0.170163	-0.024562	1.357020
26.879102	208.416886	0.175168	-0.024679	1.363703
27.592056	214.433670	0.180173	-0.024814	1.370393
28.162491	220.470731	0.185178	-0.024923	1.377017
28.695584	226.515879	0.190182	-0.025024	1.383604
29.337338	232.517438	0.195187	-0.025146	1.390154
29.653813	238.599329	0.200192	-0.025207	1.396635
30.076154	244.597511	0.205197	-0.025288	1.403038
30.858908	250.566765	0.210202	-0.025436	1.409517
31.427409	256.602361	0.215206	-0.025544	1.415954
32.039839	262.642664	0.220211	-0.025661	1.422384
32.522721	268.666110	0.225216	-0.025753	1.428719
33.082962	274.715514	0.230221	-0.025859	1.435081
33.341151	280.747590	0.235226	-0.025909	1.441287
33.798769	286.757326	0.240230	-0.025997	1.447516
34.250425	292.782751	0.245235	-0.026083	1.453732
34.671159	298.817501	0.250240	-0.026163	1.459920
35.027988	304.834579	0.255245	-0.026232	1.466040
35.541093	310.837249	0.260250	-0.026330	1.472177
36.102351	316.825511	0.265254	-0.026436	1.478291
36.507316	322.900348	0.270259	-0.026514	1.484409
36.830136	328.921274	0.275264	-0.026576	1.490421
37.358310	334.921814	0.280269	-0.026677	1.496460
37.766694	340.936913	0.285274	-0.026755	1.502447
38.161563	346.989515	0.290278	-0.026830	1.508442
38.665434	352.966368	0.295283	-0.026926	1.514378
39.101914	359.006852	0.300288	-0.027010	1.520328
39.521951	365.028119	0.305293	-0.027090	1.526231
39.906822	371.072071	0.310298	-0.027164	1.532121
40.439268	377.006438	0.315302	-0.027265	1.537934
41.329401	383.046565	0.320307	-0.027434	1.543945
41.600684	389.124494	0.325312	-0.027486	1.549761
41.941771	395.132964	0.330317	-0.027551	1.555513
42.253119	401.168518	0.335322	-0.027611	1.561259
42.870450	407.129585	0.340326	-0.027729	1.567017
43.330628	413.159376	0.345331	-0.027817	1.572764
43.764337	419.221603	0.350336	-0.027899	1.578512
44.028196	425.232218	0.355341	-0.027950	1.584136
44.423691	431.243643	0.360346	-0.028026	1.589784
44.691444	437.277776	0.365350	-0.028078	1.595390
45.208315	443.263634	0.370355	-0.028176	1.601014
45.440113	449.308203	0.375360	-0.028221	1.606579
45.987462	455.306848	0.380365	-0.028325	1.612185
46.217010	461.352107	0.385370	-0.028370	1.617711
46.490521	467.397054	0.390374	-0.028423	1.623232
46.962773	473.349352	0.395379	-0.028513	1.628715
47.276765	479.391034	0.400384	-0.028573	1.634209
47.666619	485.402209	0.405389	-0.028648	1.639681
48.143732	491.393966	0.410394	-0.028739	1.645145
48.455243	497.434990	0.415398	-0.028799	1.650582
48.930683	503.443497	0.420403	-0.028890	1.656024
49.243236	509.472651	0.425408	-0.028950	1.661416
49.790668	515.467328	0.430413	-0.029054	1.666832
50.156734	521.498272	0.435418	-0.029124	1.672207
50.416206	527.553056	0.440422	-0.029174	1.677552
50.699245	533.548693	0.445427	-0.029229	1.682836
50.857093	539.603836	0.450432	-0.029260	1.688117
51.371647	545.532633	0.455437	-0.029358	1.693381
51.914795	551.592151	0.460442	-0.029462	1.698749
52.175067	557.601931	0.465446	-0.029512	1.703972
52.521352	563.641055	0.470451	-0.029578	1.709230
52.726001	569.642063	0.475456	-0.029618	1.714397
53.027686	575.682213	0.480461	-0.029676	1.719611
53.216550	581.667344	0.485466	-0.029713	1.724729
53.658727	587.685387	0.490470	-0.029798	1.729934
53.940850	593.695726	0.495475	-0.029852	1.735070
54.349184	599.729321	0.500480	-0.029930	1.740247
54.581291	605.736569	0.505485	-0.029975	1.745335
54.964417	611.744080	0.510490	-0.030049	1.750453
55.199088	617.778172	0.515494	-0.030094	1.755534
55.540238	623.788360	0.520499	-0.030160	1.760612
55.727693	629.806692	0.525504	-0.030196	1.765637
56.068106	635.823147	0.530509	-0.030262	1.770691
56.331760	641.831050	0.535514	-0.030313	1.775701
56.449430	647.875923	0.540518	-0.030336	1.780685
56.698751	653.841074	0.545523	-0.030385	1.785628
57.084956	659.859628	0.550528	-0.030458	1.790640
57.343001	665.882648	0.555533	-0.030508	1.795604
57.624904	671.910864	0.560538	-0.030563	1.800566
57.819918	677.924710	0.565542	-0.030601	1.805479
58.343018	683.888507	0.570547	-0.030700	1.810429
58.635645	689.946868	0.575552	-0.030757	1.815378
59.303093	695.902246	0.580557	-0.030884	1.820335
59.686836	701.944345	0.585562	-0.030957	1.825268
60.161510	707.971776	0.590566	-0.031048	1.830202
60.374044	714.007118	0.595571	-0.031089	1.835057
60.633043	720.025957	0.600576	-0.031139	1.839898
60.780586	726.049163	0.605581	-0.031168	1.844699
61.221291	732.020710	0.610586	-0.031252	1.849527
61.408525	738.069163	0.615590	-0.031289	1.854334
61.794603	744.075163	0.620595	-0.031363	1.859149
61.790582	750.108113	0.625600	-0.031364	1.863867
62.007490	756.118660	0.630605	-0.031406	1.868615
62.294729	762.093026	0.635610	-0.031461	1.873342
62.655710	768.135965	0.640614	-0.031531	1.878130
62.805278	774.141750	0.645619	-0.031560	1.882821
63.271748	780.121604	0.650624	-0.031649	1.887564
63.651437	786.142276	0.655629	-0.031722	1.892304
63.995361	792.187640	0.660634	-0.031788	1.897041
64.189483	798.187448	0.665638	-0.031826	1.901692
64.511500	804.205736	0.670643	-0.031888	1.906379
64.787586	810.190364	0.675648	-0.031941	1.911017
65.132831	816.248922	0.680653	-0.032007	1.915718
65.290069	822.244040	0.685658	-0.032038	1.920310
65.595882	828.239513	0.690662	-0.032097	1.924930
65.987450	834.261099	0.695667	-0.032172	1.929581
66.332159	840.282532	0.700672	-0.032238	1.934208
66.653652	846.294574	0.705677	-0.032300	1.938811
66.736277	852.320090	0.710682	-0.032317	1.943352
66.992275	858.318000	0.715686	-0.032367	1.947906
67.309782	864.336685	0.720691	-0.032428	1.952481
67.406955	870.360318	0.725696	-0.032447	1.956992
67.715240	876.353061	0.730701	-0.032507	1.961524
67.837723	882.365752	0.735706	-0.032531	1.966012
68.239940	888.375789	0.740710	-0.032608	1.970560
68.445569	894.392974	0.745715	-0.032648	1.975052
68.749943	900.414364	0.750720	-0.032707	1.979563
69.003882	906.396729	0.755725	-0.032756	1.984021
69.190144	912.453163	0.760730	-0.032792	1.988507
69.486619	918.432243	0.765734	-0.032850	1.992953
69.857177	924.457431	0.770739	-0.032921	1.997442
70.309723	930.419323	0.775744	-0.033007	2.001895
70.674803	936.478953	0.780749	-0.033077	2.006388
71.105881	942.446087	0.785754	-0.033159	2.010819
71.646420	948.493125	0.790758	-0.033262	2.015326
71.996323	954.498647	0.795763	-0.033329	2.019745
72.183047	960.549405	0.800768	-0.033366	2.024147
72.407834	966.528958	0.805773	-0.033410	2.028498
72.700001	972.561139	0.810778	-0.033466	2.032893
73.062946	978.553684	0.815782	-0.033535	2.037268
73.187691	984.586275	0.820787	-0.033560	2.041604
73.296949	990.592347	0.825792	-0.033582	2.045908
73.651373	996.600369	0.830797	-0.033650	2.050264
73.827875	1002.625111	0.835802	-0.033685	2.054579
73.965132	1008.651565	0.840806	-0.033712	2.058877
74.075328	1014.637355	0.845811	-0.033734	2.063131
74.390704	1020.654917	0.850816	-0.033795	2.067448
74.605413	1026.646974	0.855821	-0.033837	2.071713
74.938036	1032.686097	0.860826	-0.033901	2.076031
75.187396	1038.651536	0.865830	-0.033949	2.080269
75.397870	1044.720403	0.870835	-0.033990	2.084561
75.599941	1050.685669	0.875840	-0.034029	2.088769
75.894204	1056.735593	0.880845	-0.034086	2.093050
75.997626	1062.752271	0.885850	-0.034107	2.097254
76.269078	1068.731145	0.890854	-0.034159	2.101463
76.429978	1074.749357	0.895859	-0.034191	2.105665
76.789521	1080.749126	0.900864	-0.034260	2.109892
76.887082	1086.784005	0.905869	-0.034280	2.114074
77.199445	1092.790050	0.910874	-0.034340	2.118277
77.433602	1098.780612	0.915878	-0.034385	2.122443
77.847355	1104.805486	0.920883	-0.034464	2.126667
78.077465	1110.799218	0.925888	-0.034509	2.130818
78.451911	1116.833516	0.930893	-0.034581	2.135021
78.501526	1122.854368	0.935898	-0.034592	2.139133
78.787115	1128.837804	0.940902	-0.034647	2.143266
79.036461	1134.883066	0.945907	-0.034695	2.147424
79.306502	1140.867774	0.950912	-0.034747	2.151537
79.589789	1146.852568	0.955917	-0.034802	2.155646
80.173400	1152.873705	0.960922	-0.034913	2.159840
80.573049	1158.869235	0.965926	-0.034989	2.163966
80.807845	1164.937181	0.970931	-0.035035	2.168096
80.998882	1170.921433	0.975936	-0.035072	2.172152
81.189291	1176.986361	0.980941	-0.035109	2.176255
81.373641	1182.925097	0.985946	-0.035145	2.180264
81.700964	1188.951574	0.990950	-0.035208	2.184356
81.908028	1194.965242	0.995955	-0.035249	2.188405
82.091437	1201.015820	1.000960	-0.035285	2.192465
82.275715	1206.979482	1.005965	-0.035321	2.196461
82.623904	1212.993891	1.010970	-0.035388	2.200519
82.694607	1219.031346	1.015974	-0.035402	2.204524
82.898760	1225.024498	1.020979	-0.035442	2.208521
83.238682	1231.018623	1.025984	-0.035507	2.212542
83.577273	1237.076489	1.030989	-0.035572	2.216597
83.684984	1243.033827	1.035994	-0.035594	2.220528
84.048718	1249.068981	1.040998	-0.035664	2.224559
84.286152	1255.068199	1.046003	-0.035710	2.228532
84.519240	1261.090810	1.051008	-0.035755	2.232512
84.769786	1267.112799	1.056013	-0.035804	2.236488
84.992952	1273.108962	1.061018	-0.035847	2.240434
85.234603	1279.114312	1.066022	-0.035894	2.244383
85.601408	1285.117457	1.071027	-0.035964	2.248351
85.749506	1291.163797	1.076032	-0.035993	2.252292
86.150984	1297.162407	1.081037	-0.036070	2.256251
86.113053	1303.173380	1.086042	-0.036065	2.260116
86.534572	1309.154493	1.091046	-0.036145	2.264053
86.895534	1315.142932	1.096051	-0.036214	2.267975
87.210704	1321.218213	1.101056	-0.036275	2.271937
87.323147	1327.194696	1.106061	-0.036298	2.275785
87.610810	1333.212253	1.111066	-0.036353	2.279690
87.757764	1339.229254	1.116070	-0.036382	2.283558
87.993759	1345.235649	1.121075	-0.036428	2.287432
87.990664	1351.266790	1.126080	-0.036429	2.291264
88.351760	1357.251385	1.131085	-0.036498	2.295137
88.621471	1363.250279	1.136090	-0.036550	2.298993
88.831546	1369.277247	1.141094	-0.036591	2.302848
89.035353	1375.296278	1.146099	-0.036631	2.306691
89.297735	1381.283101	1.151104	-0.036681	2.310518
89.459483	1387.318060	1.156109	-0.036713	2.314349
89.759093	1393.315377	1.161114	-0.036771	2.318178
89.896976	1399.330433	1.166118	-0.036798	2.321979
90.247966	1405.339531	1.171123	-0.036866	2.325814
90.402789	1411.332828	1.176128	-0.036896	2.329591
90.642111	1417.379480	1.181133	-0.036943	2.333414
90.653153	1423.385097	1.186138	-0.036946	2.337158
90.897965	1429.388152	1.191142	-0.036994	2.340942
91.115998	1435.373217	1.196147	-0.037036	2.344703
91.562144	1441.368862	1.201152	-0.037121	2.348511
91.622334	1447.413226	1.206157	-0.037134	2.352265
91.962475	1453.418998	1.211162	-0.037199	2.356045
91.963797	1459.442225	1.216166	-0.037201	2.359762
92.285498	1465.434142	1.221171	-0.037263	2.363518
92.516176	1471.431199	1.226176	-0.037308	2.367253
92.742314	1477.470449	1.231181	-0.037352	2.371007
93.104012	1483.452327	1.236186	-0.037421	2.374747
93.224662	1489.484925	1.241190	-0.037445	2.378464
93.480007	1495.455580	1.246195	-0.037494	2.382164
93.769162	1501.515033	1.251200	-0.037550	2.385920
94.089367	1507.478725	1.256205	-0.037612	2.389617
94.323032	1513.517212	1.261210	-0.037657	2.393337
94.684701	1519.501312	1.266214	-0.037726	2.397043
94.884514	1525.552509	1.271219	-0.037765	2.400752
95.181385	1531.527085	1.276224	-0.037823	2.404428
95.370909	1537.563668	1.281229	-0.037860	2.408115
95.718937	1543.542405	1.286234	-0.037927	2.411792
96.010047	1549.607440	1.291238	-0.037983	2.415505
96.096591	1555.549363	1.296243	-0.038000	2.419098
96.403455	1561.595309	1.301248	-0.038059	2.422790
96.519691	1567.603194	1.306253	-0.038083	2.426418
96.754709	1573.631565	1.311258	-0.038128	2.430075
96.957440	1579.599013	1.316262	-0.038168	2.433684
97.050556	1585.652978	1.321267	-0.038187	2.437317
97.147206	1591.649680	1.326272	-0.038206	2.440912
97.362065	1597.665689	1.331277	-0.038248	2.444536
97.470129	1603.641933	1.336282	-0.038270	2.448111
97.775889	1609.667021	1.341286	-0.038329	2.451747
98.021446	1615.696588	1.346291	-0.038376	2.455369
98.251505	1621.670350	1.351296	-0.038421	2.458949
98.166613	1627.728646	1.356301	-0.038407	2.462514
98.363934	1633.717205	1.361306	-0.038445	2.466087
98.662712	1639.694477	1.366310	-0.038503	2.469667
98.953758	1645.739698	1.371315	-0.038559	2.473280
99.139937	1651.720254	1.376320	-0.038595	2.476830
99.289302	1657.761634	1.381325	-0.038625	2.480404
99.387165	1663.764506	1.386330	-0.038645	2.483940
99.738110	1669.749000	1.391334	-0.038712	2.487508
99.837979	1675.778496	1.396339	-0.038732	2.491050
100.101047	1681.817007	1.401344	-0.038783	2.494623
100.113961	1687.783382	1.406349	-0.038787	2.498101
100.373321	1693.804297	1.411354	-0.038837	2.501653
100.532860	1699.809130	1.416358	-0.038868	2.505172
100.709692	1705.830423	1.421363	-0.038903	2.508698
100.920577	1711.814584	1.426368	-0.038944	2.512204
101.247543	1717.846068	1.431373	-0.039007	2.515755
101.330149	1723.846194	1.436378	-0.039024	2.519237
101.713560	1729.844119	1.441382	-0.039097	2.522768
101.836358	1735.864227	1.446387	-0.039122	2.526259
102.088756	1741.891607	1.451392	-0.039171	2.529773
102.470395	1747.852920	1.456397	-0.039244	2.533269
102.748729	1753.887473	1.461402	-0.039298	2.536782
102.796787	1759.925627	1.466406	-0.039308	2.540250
102.989599	1765.903848	1.471411	-0.039346	2.543706
103.425614	1771.882999	1.476416	-0.039429	2.547202
104.086044	1777.907012	1.481421	-0.039555	2.550760
104.381944	1783.927157	1.486426	-0.039612	2.554244
104.516809	1789.973469	1.491430	-0.039638	2.557708
104.791650	1795.936063	1.496435	-0.039691	2.561146
105.000814	1802.003005	1.501440	-0.039732	2.564627
105.132785	1807.957448	1.506445	-0.039758	2.568025
105.263046	1814.005710	1.511450	-0.039784	2.571471
105.450124	1820.024716	1.516454	-0.039821	2.574907
105.588191	1826.048150	1.521459	-0.039848	2.578331
105.863859	1831.994561	1.526464	-0.039902	2.581733
105.980389	1838.046038	1.531469	-0.039925	2.585160
106.120966	1844.019066	1.536474	-0.039953	2.588543
106.489169	1850.026363	1.541478	-0.040023	2.591981
106.573385	1856.048078	1.546483	-0.040041	2.595373
106.777797	1862.081375	1.551488	-0.040080	2.598787
106.965029	1868.052237	1.556493	-0.040117	2.602160
107.276536	1874.076831	1.561498	-0.040177	2.605580
107.308553	1880.095762	1.566502	-0.040184	2.608942
107.550772	1886.093666	1.571507	-0.040231	2.612326
107.640477	1892.102668	1.576512	-0.040250	2.615685
107.880921	1898.116397	1.581517	-0.040296	2.619068
107.852127	1904.138049	1.586522	-0.040292	2.622404
108.051696	1910.137905	1.591526	-0.040331	2.625764
108.387680	1916.112310	1.596531	-0.040396	2.629130
108.678816	1922.147228	1.601536	-0.040452	2.632516
108.826369	1928.143833	1.606541	-0.040481	2.635852
108.960775	1934.192807	1.611546	-0.040508	2.639211
109.148699	1940.171412	1.616550	-0.040545	2.642535
109.293657	1946.173795	1.621555	-0.040573	2.645861
109.587816	1952.194223	1.626560	-0.040630	2.649219
109.632284	1958.234299	1.631565	-0.040640	2.652540
109.765666	1964.192375	1.636570	-0.040666	2.655827
110.025310	1970.244911	1.641574	-0.040717	2.659183
110.164760	1976.205345	1.646579	-0.040744	2.662464
110.291359	1982.240805	1.651584	-0.040769	2.665780
110.276621	1988.269288	1.656589	-0.040768	2.669064
110.506882	1994.256870	1.661594	-0.040813	2.672363
110.494678	2000.275905	1.666598	-0.040812	2.675634
110.713725	2006.290082	1.671603	-0.040855	2.678938
110.944370	2012.243122	1.676608	-0.040899	2.682206
111.261161	2018.291887	1.681613	-0.040960	2.685537
111.274888	2024.311766	1.686618	-0.040964	2.688797
111.518863	2030.329240	1.691622	-0.041012	2.692090
111.562411	2036.297805	1.696627	-0.041021	2.695319
111.830087	2042.341306	1.701632	-0.041073	2.698623
111.962133	2048.317064	1.706637	-0.041099	2.701863
112.114804	2054.355787	1.711642	-0.041129	2.705136
112.201132	2060.352298	1.716646	-0.041147	2.708372
112.526747	2066.363389	1.721651	-0.041210	2.711652
112.591726	2072.354931	1.726656	-0.041223	2.714873
112.840698	2078.387266	1.731661	-0.041272	2.718143
113.097069	2084.369218	1.736666	-0.041321	2.721384
113.372796	2090.398663	1.741670	-0.041374	2.724649
113.330009	2096.425239	1.746675	-0.041368	2.727856
113.651041	2102.402461	1.751680	-0.041430	2.731094
113.808693	2108.428456	1.756685	-0.041461	2.734326
114.199906	2114.394908	1.761690	-0.041536	2.737561
114.360037	2120.434065	1.766694	-0.041567	2.740793
114.613415	2126.457375	1.771699	-0.041616	2.744028
114.744817	2132.458602	1.776704	-0.041642	2.747227
114.884054	2138.472159	1.781709	-0.041670	2.750431
114.959529	2144.478312	1.786714	-0.041686	2.753616
115.358606	2150.454453	1.791718	-0.041762	2.756835
115.452832	2156.495008	1.796723	-0.041781	2.760034
115.621159	2162.508996	1.801728	-0.041814	2.763228
115.735755	2168.499169	1.806733	-0.041837	2.766396
115.771760	2174.530126	1.811738	-0.041845	2.769570
116.031982	2180.528437	1.816742	-0.041896	2.772759
116.222591	2186.521374	1.821747	-0.041933	2.775930
116.376464	2192.535031	1.826752	-0.041963	2.779103
116.468636	2198.556199	1.831757	-0.041982	2.782266
116.592569	2204.543370	1.836762	-0.042007	2.785412
116.980730	2210.576838	1.841766	-0.042081	2.788622
117.172186	2216.557671	1.846771	-0.042119	2.791769
117.322756	2222.592194	1.851776	-0.042148	2.794934
117.487381	2228.594476	1.856781	-0.042181	2.798081
117.673515	2234.589783	1.861786	-0.042217	2.801223
117.891234	2240.606317	1.866790	-0.042259	2.804379
118.148408	2246.629696	1.871795	-0.042309	2.807540
118.195715	2252.626162	1.876800	-0.042320	2.810651
118.641674	2258.634925	1.881805	-0.042405	2.813828
118.607043	2264.647119	1.886810	-0.042400	2.816927
118.768134	2270.667611	1.891814	-0.042431	2.820058
118.980908	2276.668131	1.896819	-0.042473	2.823183
119.129895	2282.661007	1.901824	-0.042502	2.826291
119.411673	2288.656950	1.906829	-0.042557	2.829417
119.585562	2294.711615	1.911834	-0.042591	2.832554
119.648497	2300.685270	1.916838	-0.042604	2.835628
119.851505	2306.699407	1.921843	-0.042644	2.838741
120.098394	2312.714795	1.926848	-0.042691	2.841858
120.336498	2318.708473	1.931853	-0.042738	2.844960
120.382592	2324.738143	1.936858	-0.042748	2.848046
120.722313	2330.736780	1.941862	-0.042813	2.851159
120.897010	2336.731254	1.946867	-0.042847	2.854241
121.034439	2342.755346	1.951872	-0.042875	2.857328
121.191340	2348.740174	1.956877	-0.042905	2.860396
122.318332	2354.702882	1.961882	-0.043118	2.863599
122.761395	2360.739671	1.966886	-0.043203	2.866730
122.915312	2366.818341	1.971891	-0.043233	2.869834
123.139427	2372.794717	1.976896	-0.043277	2.872894
123.235648	2378.801049	1.981901	-0.043297	2.875946
123.447333	2384.799761	1.986906	-0.043338	2.879008
123.670243	2390.842445	1.991910	-0.043381	2.882092
