Fri Jan 13 17:27:19 2023

Number of Points = 3000
Depth (nm)	Load (µN)	Time (s)	Depth (V)	Load (V)
0.000000	2.105825	0.000000	-0.039813	1.159673
6.771230	3.875558	0.005005	-0.041084	1.164994
22.267354	6.296499	0.010010	-0.043992	1.175061
50.302313	8.808982	0.015014	-0.049253	1.190760
73.952010	16.712209	0.020019	-0.053693	1.210781
76.637012	26.543167	0.025024	-0.054199	1.223674
77.883014	33.476044	0.030029	-0.054435	1.232406
78.976451	39.729383	0.035034	-0.054642	1.240215
79.765900	45.845325	0.040038	-0.054791	1.247687
80.552696	51.904242	0.045043	-0.054940	1.255047
81.290434	57.943747	0.050048	-0.055080	1.262320
81.987489	63.981042	0.055053	-0.055213	1.269532
82.727045	69.982012	0.060058	-0.055353	1.276680
83.283973	76.080218	0.065062	-0.055459	1.283822
83.945971	82.068333	0.070067	-0.055585	1.290844
84.771834	88.091924	0.075072	-0.055741	1.297934
85.184413	94.238266	0.080077	-0.055820	1.304954
85.680915	100.204333	0.085082	-0.055915	1.311771
86.170081	106.214049	0.090086	-0.056008	1.318598
86.740766	112.249336	0.095091	-0.056116	1.325449
87.293484	118.247081	0.100096	-0.056222	1.332217
87.915759	124.293632	0.105101	-0.056340	1.339032
88.302631	130.338068	0.110106	-0.056414	1.345717
88.749274	136.380354	0.115110	-0.056499	1.352389
89.288941	142.358666	0.120115	-0.056602	1.358997
89.896502	148.404671	0.125120	-0.056718	1.365670
90.294675	154.435688	0.130125	-0.056794	1.372215
91.064106	160.414292	0.135130	-0.056940	1.378815
91.453525	166.499004	0.140134	-0.057014	1.385350
92.044428	172.481170	0.145139	-0.057126	1.391824
92.624259	178.520639	0.150144	-0.057237	1.398322
93.244562	184.524163	0.155149	-0.057355	1.404769
93.719225	190.570225	0.160154	-0.057445	1.411175
94.291976	196.576712	0.165158	-0.057554	1.417548
94.631463	202.654735	0.170163	-0.057619	1.423879
95.023002	208.669570	0.175168	-0.057694	1.430138
95.497159	214.665233	0.180173	-0.057785	1.436379
95.969793	220.692647	0.185178	-0.057875	1.442625
96.380718	226.732680	0.190182	-0.057954	1.448834
96.697734	232.758995	0.195187	-0.058015	1.454969
97.218221	238.752191	0.200192	-0.058114	1.461118
97.744289	244.772145	0.205197	-0.058214	1.467269
98.308460	250.759643	0.210202	-0.058321	1.473376
98.774207	256.844205	0.215206	-0.058410	1.479519
99.177518	262.843050	0.220211	-0.058487	1.485530
99.663540	268.850587	0.225216	-0.058580	1.491554
99.956779	274.907955	0.230221	-0.058637	1.497535
100.304249	280.925177	0.235226	-0.058703	1.503472
100.988358	286.883246	0.240230	-0.058833	1.509445
101.288030	292.971351	0.245235	-0.058891	1.515386
101.782105	298.944563	0.250240	-0.058985	1.521261
102.346614	304.970941	0.255245	-0.059092	1.527188
102.757353	310.995207	0.260250	-0.059171	1.533038
103.549128	316.983853	0.265254	-0.059321	1.538960
103.924437	323.043820	0.270259	-0.059393	1.544786
104.388310	329.051130	0.275264	-0.059481	1.550571
104.757806	335.083864	0.280269	-0.059552	1.556327
105.247162	341.106211	0.285274	-0.059646	1.562091
105.816924	347.073172	0.290278	-0.059754	1.567809
106.226111	353.149748	0.295283	-0.059832	1.573554
106.733783	359.142396	0.300288	-0.059929	1.579234
107.227685	365.167990	0.305293	-0.060023	1.584919
107.582584	371.190010	0.310298	-0.060091	1.590534
107.829814	377.242826	0.315302	-0.060139	1.596124
108.152426	383.244079	0.320307	-0.060201	1.601671
108.704633	389.234864	0.325312	-0.060306	1.607263
108.834014	395.310140	0.330317	-0.060332	1.612776
109.217031	401.301183	0.335322	-0.060405	1.618276
109.559821	407.318929	0.340326	-0.060471	1.623768
110.042660	413.295617	0.345331	-0.060563	1.629250
110.629348	419.300171	0.350336	-0.060675	1.634770
111.090408	425.351400	0.355341	-0.060763	1.640273
111.349415	431.383653	0.360346	-0.060813	1.645678
111.713548	437.401927	0.365350	-0.060883	1.651086
111.964953	443.423155	0.370355	-0.060931	1.656443
112.384902	449.422510	0.375360	-0.061012	1.661816
112.600304	455.460957	0.380365	-0.061054	1.667143
112.969297	461.460604	0.385370	-0.061124	1.672466
113.211562	467.492727	0.390374	-0.061171	1.677762
113.468449	473.516458	0.395379	-0.061221	1.683038
113.821751	479.487991	0.400384	-0.061289	1.688282
114.411515	485.505833	0.405389	-0.061401	1.693620
114.527116	491.582380	0.410394	-0.061424	1.698850
114.907121	497.550846	0.415398	-0.061497	1.704050
115.284421	503.559654	0.420403	-0.061569	1.709268
115.579580	509.600424	0.425408	-0.061626	1.714472
115.999187	515.582276	0.430413	-0.061706	1.719648
116.350429	521.637072	0.435418	-0.061774	1.724849
116.539727	527.658087	0.440422	-0.061811	1.729959
117.026970	533.627162	0.445427	-0.061904	1.735097
117.214513	539.697451	0.450432	-0.061940	1.740217
117.556526	545.693662	0.455437	-0.062006	1.745305
117.875252	551.684547	0.460442	-0.062067	1.750367
118.255004	557.726610	0.465446	-0.062140	1.755475
118.520996	563.745375	0.470451	-0.062191	1.760515
118.806066	569.748069	0.475456	-0.062246	1.765533
119.116137	575.757179	0.480461	-0.062306	1.770550
119.546178	581.771932	0.485466	-0.062388	1.775591
119.736198	587.817266	0.490470	-0.062425	1.780574
120.151290	593.792563	0.495475	-0.062505	1.785550
120.380851	599.818748	0.500480	-0.062549	1.790502
120.708871	605.839091	0.505485	-0.062612	1.795462
120.921250	611.863037	0.510490	-0.062654	1.800379
121.347030	617.856011	0.515494	-0.062735	1.805317
121.624244	623.882347	0.520499	-0.062789	1.810228
122.087498	629.866342	0.525504	-0.062877	1.815142
122.581906	635.882549	0.530509	-0.062971	1.820078
122.826601	641.925364	0.535514	-0.063019	1.824952
123.025933	647.947062	0.540518	-0.063058	1.829784
123.485184	653.930345	0.545523	-0.063145	1.834645
123.749028	659.962261	0.550528	-0.063196	1.839477
124.160312	665.966806	0.555533	-0.063275	1.844315
124.420916	671.991463	0.560538	-0.063325	1.849115
124.729238	678.025493	0.565542	-0.063385	1.853923
125.049395	684.015413	0.570547	-0.063446	1.858687
125.338842	690.030964	0.575552	-0.063502	1.863451
125.664639	696.041797	0.580557	-0.063565	1.868208
125.973381	702.052689	0.585562	-0.063624	1.872949
126.193714	708.077907	0.590566	-0.063667	1.877665
126.511827	714.100048	0.595571	-0.063728	1.882393
126.865016	720.078410	0.600576	-0.063796	1.887085
127.098540	726.134921	0.605581	-0.063841	1.891793
127.471898	732.116720	0.610586	-0.063913	1.896469
127.718213	738.133946	0.615590	-0.063960	1.901127
128.037579	744.152039	0.620595	-0.064022	1.905794
128.267080	750.184442	0.625600	-0.064066	1.910436
128.505872	756.169592	0.630605	-0.064113	1.915034
128.829357	762.198661	0.635610	-0.064175	1.919676
129.040795	768.207196	0.640614	-0.064216	1.924262
129.530850	774.192741	0.645619	-0.064309	1.928892
129.877032	780.221004	0.650624	-0.064376	1.933506
130.063527	786.277587	0.655629	-0.064412	1.938088
130.240359	792.249109	0.660634	-0.064447	1.942594
130.565719	798.275813	0.665638	-0.064510	1.947169
130.612676	804.301086	0.670643	-0.064520	1.951660
131.057308	810.271492	0.675648	-0.064605	1.956202
131.381925	816.289959	0.680653	-0.064667	1.960738
131.798937	822.307688	0.685658	-0.064747	1.965287
131.925314	828.334687	0.690662	-0.064772	1.969758
132.306243	834.351243	0.695667	-0.064845	1.974276
132.532853	840.348458	0.700672	-0.064889	1.978730
132.838807	846.364039	0.705677	-0.064948	1.983208
133.196137	852.376361	0.710682	-0.065017	1.987686
133.271903	858.418061	0.715686	-0.065032	1.992105
133.519775	864.418153	0.720691	-0.065080	1.996526
133.822830	870.404941	0.725696	-0.065139	2.000942
134.100035	876.437682	0.730701	-0.065192	2.005375
134.325986	882.441214	0.735706	-0.065236	2.009765
134.648914	888.439483	0.740710	-0.065298	2.014164
134.859613	894.495240	0.745715	-0.065339	2.018568
135.135214	900.463387	0.750720	-0.065392	2.022916
135.379074	906.508578	0.755725	-0.065440	2.027301
135.658886	912.476495	0.760730	-0.065494	2.031631
136.114153	918.504600	0.765734	-0.065580	2.036036
136.331896	924.521978	0.770739	-0.065623	2.040367
136.601661	930.539043	0.775744	-0.065675	2.044701
136.820577	936.534835	0.780749	-0.065717	2.048998
137.022819	942.597347	0.785754	-0.065757	2.053330
137.243991	948.577763	0.790758	-0.065800	2.057599
137.661421	954.554693	0.795763	-0.065880	2.061903
137.838031	960.595736	0.800768	-0.065914	2.066187
138.194292	966.591104	0.805773	-0.065983	2.070472
138.452154	972.624426	0.810778	-0.066033	2.074751
138.644127	978.647158	0.815782	-0.066070	2.078998
138.737408	984.655085	0.820787	-0.066089	2.083203
139.124186	990.652575	0.825792	-0.066163	2.087461
139.367787	996.657858	0.830797	-0.066210	2.091683
139.580033	1002.704439	0.835802	-0.066252	2.095917
139.792692	1008.673726	0.840806	-0.066293	2.100089
140.069006	1014.692486	0.845811	-0.066346	2.104302
140.310999	1020.714759	0.850816	-0.066393	2.108501
140.639137	1026.704883	0.855821	-0.066456	2.112689
140.839138	1032.751241	0.860826	-0.066495	2.116878
141.221440	1038.712963	0.865830	-0.066569	2.121043
141.562037	1044.737738	0.870835	-0.066634	2.125233
141.956456	1050.775840	0.875840	-0.066709	2.129436
142.086587	1056.775243	0.880845	-0.066735	2.133543
142.303021	1062.799600	0.885850	-0.066777	2.137680
142.680107	1068.793898	0.890854	-0.066850	2.141825
142.930562	1074.805632	0.895859	-0.066898	2.145944
143.145339	1080.805507	0.900864	-0.066940	2.150040
143.473727	1086.842605	0.905869	-0.067003	2.154178
143.508397	1092.861191	0.910874	-0.067011	2.158230
143.820910	1098.851474	0.915878	-0.067071	2.162318
143.954185	1104.891487	0.920883	-0.067098	2.166391
144.217370	1110.870569	0.925888	-0.067149	2.170445
144.399198	1116.898252	0.930893	-0.067184	2.174505
144.775447	1122.876324	0.935898	-0.067256	2.178568
144.786074	1128.949811	0.940902	-0.067260	2.182605
144.874240	1134.952706	0.945907	-0.067278	2.186606
145.036990	1140.918068	0.950912	-0.067310	2.190591
145.530190	1146.924173	0.955917	-0.067404	2.194668
145.679883	1152.952969	0.960922	-0.067433	2.198677
145.960396	1158.961217	0.965926	-0.067487	2.202694
146.157098	1164.986152	0.970931	-0.067526	2.206696
146.431507	1170.970730	0.975936	-0.067579	2.210681
146.588586	1177.017998	0.980941	-0.067610	2.214675
146.752028	1183.010368	0.985946	-0.067642	2.218627
146.951439	1189.011380	0.990950	-0.067681	2.222585
147.185185	1195.057399	0.995955	-0.067726	2.226573
147.475384	1201.015117	1.000960	-0.067782	2.230508
147.653959	1207.064432	1.005965	-0.067817	2.234472
147.756525	1213.050371	1.010970	-0.067838	2.238372
147.993690	1219.086084	1.015974	-0.067884	2.242325
148.253804	1225.087989	1.020979	-0.067934	2.246255
148.522783	1231.089446	1.025984	-0.067986	2.250180
148.822106	1237.086914	1.030989	-0.068044	2.254101
149.155394	1243.114707	1.035994	-0.068108	2.258043
149.353309	1249.126421	1.040998	-0.068146	2.261938
149.499292	1255.169835	1.046003	-0.068175	2.265836
149.660070	1261.112230	1.051008	-0.068207	2.269666
150.307341	1267.109889	1.056013	-0.068330	2.273627
150.536100	1273.152622	1.061018	-0.068374	2.277522
150.767493	1279.189295	1.066022	-0.068419	2.281406
151.102872	1285.169000	1.071027	-0.068484	2.285270
151.246606	1291.202374	1.076032	-0.068512	2.289121
151.375576	1297.214351	1.081037	-0.068538	2.292949
151.592779	1303.227586	1.086042	-0.068580	2.296790
151.852482	1309.205532	1.091046	-0.068630	2.300611
152.077104	1315.231319	1.096051	-0.068674	2.304448
152.274754	1321.246655	1.101056	-0.068712	2.308267
152.524045	1327.254821	1.106061	-0.068761	2.312085
152.645472	1333.288889	1.111066	-0.068785	2.315887
152.935248	1339.251930	1.116070	-0.068841	2.319673
152.964739	1345.313559	1.121075	-0.068848	2.323461
153.217877	1351.282539	1.126080	-0.068897	2.327231
153.356602	1357.329008	1.131085	-0.068924	2.331019
153.602066	1363.321596	1.136090	-0.068972	2.334790
153.681993	1369.322866	1.141094	-0.068988	2.338526
153.941899	1375.324828	1.146099	-0.069039	2.342293
154.252236	1381.348410	1.151104	-0.069098	2.346078
154.486005	1387.357764	1.156109	-0.069144	2.349832
154.581594	1393.370065	1.161114	-0.069163	2.353554
154.783459	1399.382984	1.166118	-0.069203	2.357292
154.964853	1405.365003	1.171123	-0.069238	2.361001
155.277497	1411.394579	1.176128	-0.069298	2.364759
155.641562	1417.384988	1.181133	-0.069368	2.368498
155.982860	1423.410529	1.186138	-0.069434	2.372248
156.058745	1429.441144	1.191142	-0.069449	2.375942
156.303657	1435.438183	1.196147	-0.069497	2.379643
156.458130	1441.430943	1.201152	-0.069527	2.383319
156.849666	1447.427587	1.206157	-0.069602	2.387037
156.944386	1453.487904	1.211162	-0.069621	2.390730
157.263671	1459.468811	1.216166	-0.069683	2.394413
157.297536	1465.506133	1.221171	-0.069691	2.398069
157.601582	1471.470976	1.226176	-0.069749	2.401728
157.712727	1477.534806	1.231181	-0.069772	2.405403
158.046954	1483.481503	1.236186	-0.069836	2.409046
158.091304	1489.551722	1.241190	-0.069846	2.412701
158.324593	1495.530560	1.246195	-0.069891	2.416333
158.513739	1501.528521	1.251200	-0.069928	2.419962
158.603847	1507.576754	1.256205	-0.069946	2.423596
158.927724	1513.525652	1.261210	-0.070008	2.427211
159.106157	1519.584160	1.266214	-0.070043	2.430857
159.364257	1525.575899	1.271219	-0.070093	2.434474
159.466626	1531.592121	1.276224	-0.070114	2.438070
159.690860	1537.596694	1.281229	-0.070158	2.441677
159.801805	1543.634962	1.286234	-0.070180	2.445277
160.088863	1549.588669	1.291238	-0.070235	2.448855
160.536791	1555.603062	1.296243	-0.070321	2.452494
160.689927	1561.642835	1.301248	-0.070351	2.456087
160.728363	1567.664023	1.306253	-0.070360	2.459642
161.075716	1573.631665	1.311258	-0.070426	2.463219
161.298138	1579.650005	1.316262	-0.070470	2.466797
161.651212	1585.676289	1.321267	-0.070537	2.470398
161.912683	1591.693783	1.326272	-0.070588	2.473972
162.088203	1597.674502	1.331277	-0.070622	2.477504
162.378412	1603.703624	1.336282	-0.070678	2.481080
162.406830	1609.731069	1.341286	-0.070685	2.484600
162.752828	1615.701664	1.346291	-0.070751	2.488142
162.926363	1621.728848	1.351296	-0.070786	2.491680
163.151779	1627.763619	1.356301	-0.070829	2.495226
163.221009	1633.754549	1.361306	-0.070844	2.498713
163.476299	1639.747419	1.366310	-0.070893	2.502231
163.644907	1645.765465	1.371315	-0.070926	2.505742
163.937617	1651.770027	1.376320	-0.070983	2.509264
164.072044	1657.803516	1.381325	-0.071009	2.512768
164.231827	1663.791809	1.386330	-0.071041	2.516246
164.314848	1669.832174	1.391334	-0.071058	2.519734
164.514324	1675.803609	1.396339	-0.071097	2.523200
164.797786	1681.803319	1.401344	-0.071152	2.526693
164.868713	1687.867962	1.406349	-0.071166	2.530179
165.204582	1693.830987	1.411354	-0.071231	2.533650
165.301085	1699.859422	1.416358	-0.071250	2.537110
165.451916	1705.854115	1.421363	-0.071280	2.540557
165.748273	1711.872758	1.426368	-0.071337	2.544038
165.865667	1717.870590	1.431373	-0.071361	2.547471
166.203760	1723.881959	1.436378	-0.071426	2.550946
166.405923	1729.906106	1.441382	-0.071465	2.554400
166.465135	1735.903679	1.446387	-0.071478	2.557808
166.627941	1741.924831	1.451392	-0.071510	2.561243
166.968274	1747.933227	1.456397	-0.071575	2.564698
166.928929	1753.932322	1.461402	-0.071569	2.568076
167.365666	1759.935613	1.466406	-0.071653	2.571536
167.509259	1765.996831	1.471411	-0.071681	2.574972
167.625612	1771.995415	1.476416	-0.071705	2.578363
167.743657	1777.972773	1.481421	-0.071728	2.581739
168.089666	1783.974171	1.486426	-0.071795	2.585163
168.203023	1789.977641	1.491430	-0.071817	2.588543
168.456726	1796.011243	1.496435	-0.071866	2.591961
168.648331	1801.997438	1.501440	-0.071904	2.595336
168.916792	1807.997714	1.506445	-0.071956	2.598728
169.127712	1814.024283	1.511450	-0.071997	2.602121
169.305122	1820.031290	1.516454	-0.072032	2.605492
169.437356	1826.051804	1.521459	-0.072058	2.608858
169.710748	1832.039137	1.526464	-0.072111	2.612227
169.880304	1838.047813	1.531469	-0.072144	2.615584
170.047864	1844.091510	1.536474	-0.072177	2.618956
170.286459	1850.068058	1.541478	-0.072223	2.622300
170.530495	1856.058613	1.546483	-0.072270	2.625647
170.743548	1862.104200	1.551488	-0.072312	2.629015
170.993266	1868.123124	1.556493	-0.072360	2.632371
171.164843	1874.098120	1.561498	-0.072394	2.635684
171.357371	1880.133624	1.566502	-0.072432	2.639031
171.525204	1886.128012	1.571507	-0.072464	2.642346
171.813303	1892.120959	1.576512	-0.072520	2.645676
171.889045	1898.160850	1.581517	-0.072536	2.648992
172.247511	1904.159392	1.586522	-0.072604	2.652330
172.465114	1910.165113	1.591526	-0.072647	2.655643
172.784192	1916.165499	1.596531	-0.072708	2.658966
173.073754	1922.171988	1.601536	-0.072764	2.662284
173.389631	1928.174459	1.606541	-0.072825	2.665599
173.491714	1934.190751	1.611546	-0.072845	2.668882
173.955004	1940.206620	1.616550	-0.072934	2.672221
174.148224	1946.210621	1.621555	-0.072972	2.675504
174.236519	1952.234232	1.626560	-0.072990	2.678776
174.395619	1958.246550	1.631565	-0.073021	2.682050
174.716077	1964.225052	1.636570	-0.073083	2.685329
174.827904	1970.264804	1.641574	-0.073105	2.688601
175.085556	1976.260557	1.646579	-0.073155	2.691871
175.206097	1982.277596	1.651584	-0.073179	2.695124
175.399531	1988.276876	1.656589	-0.073217	2.698377
175.546202	1994.290564	1.661594	-0.073246	2.701625
175.845391	2000.272134	1.666598	-0.073303	2.704878
176.025918	2006.320345	1.671603	-0.073339	2.708143
176.341286	2012.314034	1.676608	-0.073399	2.711397
176.536916	2018.304460	1.681613	-0.073438	2.714625
176.709668	2024.333903	1.686618	-0.073472	2.717867
176.851233	2030.336944	1.691622	-0.073500	2.721085
177.156317	2036.362103	1.696627	-0.073558	2.724339
177.294248	2042.360197	1.701632	-0.073586	2.727546
177.482738	2048.363271	1.706637	-0.073623	2.730761
177.655076	2054.390952	1.711642	-0.073656	2.733982
177.981586	2060.354351	1.716646	-0.073719	2.737191
177.889600	2066.409393	1.721651	-0.073703	2.740376
178.108680	2072.419269	1.726656	-0.073746	2.743584
178.314066	2078.383696	1.731661	-0.073786	2.746762
178.460632	2084.419081	1.736666	-0.073815	2.749965
178.623402	2090.447671	1.741670	-0.073847	2.753162
178.812770	2096.435307	1.746675	-0.073884	2.756339
179.032981	2102.415074	1.751680	-0.073927	2.759513
179.333494	2108.456889	1.756685	-0.073985	2.762728
179.442977	2114.460006	1.761690	-0.074007	2.765889
179.920202	2120.456171	1.766694	-0.074098	2.769102
180.053304	2126.488771	1.771699	-0.074124	2.772274
180.298937	2132.471478	1.776704	-0.074172	2.775435
180.470380	2138.508039	1.781709	-0.074205	2.778609
180.854533	2144.484817	1.786714	-0.074279	2.781782
181.028603	2150.500991	1.791718	-0.074313	2.784938
181.236006	2156.533686	1.796723	-0.074354	2.788104
181.333856	2162.526423	1.801728	-0.074373	2.791229
181.516902	2168.537094	1.806733	-0.074409	2.794372
181.709910	2174.544350	1.811738	-0.074447	2.797513
181.882858	2180.563443	1.816742	-0.074481	2.800652
182.069016	2186.579902	1.821747	-0.074517	2.803789
182.173372	2192.567791	1.826752	-0.074538	2.806894
182.416809	2198.579096	1.831757	-0.074586	2.810030
182.628122	2204.604100	1.836762	-0.074627	2.813165
182.791390	2210.590546	1.841766	-0.074659	2.816268
183.020804	2216.609657	1.846771	-0.074703	2.819396
183.105106	2222.605155	1.851776	-0.074721	2.822485
183.316280	2228.617201	1.856781	-0.074762	2.825598
183.555228	2234.641555	1.861786	-0.074808	2.828720
183.751231	2240.624148	1.866790	-0.074846	2.831809
183.821040	2246.649531	1.871795	-0.074861	2.834897
183.985021	2252.666841	1.876800	-0.074893	2.837993
184.200359	2258.655532	1.881805	-0.074935	2.841078
184.312084	2264.674517	1.886810	-0.074958	2.844160
184.609732	2270.660591	1.891814	-0.075015	2.847250
184.867284	2276.692644	1.896819	-0.075065	2.850354
184.991653	2282.724003	1.901824	-0.075090	2.853433
185.224284	2288.689546	1.906829	-0.075135	2.856493
185.440605	2294.701148	1.911834	-0.075177	2.859570
185.614243	2300.749026	1.916838	-0.075211	2.862655
185.863323	2306.719392	1.921843	-0.075259	2.865710
185.995766	2312.739782	1.926848	-0.075285	2.868769
186.088458	2318.760166	1.931853	-0.075304	2.871818
186.172877	2324.746722	1.936858	-0.075322	2.874846
186.324463	2330.779492	1.941862	-0.075352	2.877904
186.526346	2336.778659	1.946867	-0.075391	2.880949
186.645583	2342.778864	1.951872	-0.075415	2.883979
186.819851	2348.802421	1.956877	-0.075449	2.887026
187.061401	2354.785891	1.961882	-0.075496	2.890060
187.251986	2360.835546	1.966886	-0.075533	2.893116
