Fri Jan 13 17:27:19 2023

Number of Points = 3000
Depth (nm)	Load (µN)	Time (s)	Depth (V)	Load (V)
0.000000	2.037813	0.000000	-0.029451	1.133859
0.802557	5.086315	0.005005	-0.029602	1.138145
2.068147	9.684697	0.010010	-0.029841	1.144606
3.311257	15.410349	0.015014	-0.030076	1.152445
4.595200	21.399027	0.020019	-0.030318	1.160579
5.346760	27.523610	0.025024	-0.030461	1.168583
6.424051	33.521986	0.030029	-0.030664	1.176523
7.315521	39.573303	0.035034	-0.030833	1.184391
8.167902	45.636822	0.040038	-0.030994	1.192204
8.964852	51.673754	0.045043	-0.031145	1.199908
9.800169	57.714258	0.050048	-0.031304	1.207585
10.524480	63.773375	0.055053	-0.031441	1.215187
11.202052	69.819172	0.060058	-0.031570	1.222704
11.881482	75.845435	0.065062	-0.031699	1.230153
12.552382	81.874606	0.070067	-0.031826	1.237557
13.163019	87.923938	0.075072	-0.031942	1.244915
13.785761	93.961394	0.080077	-0.032060	1.252220
14.281424	100.011967	0.085082	-0.032155	1.259444
14.849981	106.034569	0.090086	-0.032263	1.266625
15.416214	112.045145	0.095091	-0.032371	1.273751
16.150111	118.079312	0.100096	-0.032510	1.280933
16.549494	124.129217	0.105101	-0.032587	1.287955
17.012707	130.193095	0.110106	-0.032675	1.294981
17.454425	136.234143	0.115110	-0.032759	1.301934
18.067659	142.236801	0.120115	-0.032876	1.308877
18.482876	148.255197	0.125120	-0.032955	1.315721
19.015989	154.265785	0.130125	-0.033057	1.322567
19.430731	160.309453	0.135130	-0.033136	1.329368
19.953385	166.335629	0.140134	-0.033236	1.336157
20.408152	172.348349	0.145139	-0.033322	1.342871
20.990644	178.360715	0.150144	-0.033433	1.349600
21.549318	184.386398	0.155149	-0.033540	1.356301
22.132128	190.424288	0.160154	-0.033650	1.362991
22.451519	196.482584	0.165158	-0.033712	1.369569
23.013020	202.463914	0.170163	-0.033819	1.376126
23.558252	208.500429	0.175168	-0.033923	1.382704
24.063444	214.520093	0.180173	-0.034019	1.389218
24.469409	220.556734	0.185178	-0.034096	1.395681
24.986290	226.583954	0.190182	-0.034195	1.402147
25.306465	232.619234	0.195187	-0.034257	1.408517
25.875793	238.629163	0.200192	-0.034365	1.414925
26.129471	244.671294	0.205197	-0.034414	1.421220
26.732838	250.664419	0.210202	-0.034529	1.427567
27.284614	256.647875	0.215206	-0.034634	1.433856
27.942131	262.701852	0.220211	-0.034759	1.440227
28.361647	268.733410	0.225216	-0.034839	1.446461
28.748944	274.770999	0.230221	-0.034913	1.452663
29.182098	280.790482	0.235226	-0.034996	1.458836
29.591113	286.820778	0.240230	-0.035074	1.464986
29.846852	292.847548	0.245235	-0.035123	1.471052
30.580209	298.808913	0.250240	-0.035262	1.477197
30.904199	304.878709	0.255245	-0.035325	1.483279
31.432680	310.882743	0.260250	-0.035425	1.489343
31.875726	316.892184	0.265254	-0.035510	1.495358
32.364348	322.939282	0.270259	-0.035603	1.501401
32.718627	328.949027	0.275264	-0.035671	1.507337
33.140879	334.984887	0.280269	-0.035752	1.513299
33.475876	341.008108	0.285274	-0.035816	1.519194
33.941154	347.004767	0.290278	-0.035905	1.525086
34.469533	353.007132	0.295283	-0.036006	1.530983
35.021381	359.033909	0.300288	-0.036111	1.536887
35.470736	365.069825	0.305293	-0.036197	1.542742
35.883256	371.093275	0.310298	-0.036275	1.548552
36.226214	377.131880	0.315302	-0.036341	1.554330
36.754077	383.111309	0.320307	-0.036442	1.560093
36.932088	389.174393	0.325312	-0.036477	1.565797
37.390163	395.163050	0.330317	-0.036564	1.571503
37.823675	401.177072	0.335322	-0.036647	1.577204
38.370323	407.194662	0.340326	-0.036751	1.582925
38.494265	413.254064	0.345331	-0.036776	1.588525
38.870761	419.261236	0.350336	-0.036848	1.594140
39.342494	425.242926	0.355341	-0.036938	1.599743
39.693074	431.286853	0.360346	-0.037005	1.605343
40.073043	437.292402	0.365350	-0.037078	1.610899
40.360400	443.355322	0.370355	-0.037133	1.616457
40.645540	449.354217	0.375360	-0.037188	1.621938
41.080876	455.335726	0.380365	-0.037272	1.627433
41.313678	461.388099	0.385370	-0.037317	1.632908
41.801755	467.375360	0.390374	-0.037410	1.638388
42.094420	473.414246	0.395379	-0.037466	1.643833
42.763684	479.373076	0.400384	-0.037593	1.649308
43.071237	485.428466	0.405389	-0.037653	1.654736
43.534889	491.465338	0.410394	-0.037741	1.660179
43.737169	497.469385	0.415398	-0.037780	1.665494
44.284846	503.465593	0.420403	-0.037885	1.670892
44.404587	509.536358	0.425408	-0.037909	1.676206
44.824319	515.532471	0.430413	-0.037989	1.681530
44.952494	521.565758	0.435418	-0.038014	1.686780
45.609894	527.510897	0.440422	-0.038139	1.692099
45.822929	533.609933	0.445427	-0.038181	1.697399
46.187827	539.580500	0.450432	-0.038251	1.702618
46.470092	545.620490	0.455437	-0.038305	1.707855
46.942345	551.601262	0.460442	-0.038395	1.713083
47.097542	557.666010	0.465446	-0.038426	1.718271
47.659221	563.620623	0.470451	-0.038533	1.723472
48.009612	569.670599	0.475456	-0.038600	1.728674
48.384440	575.681206	0.480461	-0.038672	1.733835
48.796597	581.693764	0.485466	-0.038751	1.738993
48.993176	587.733504	0.490470	-0.038789	1.744095
49.282422	593.723738	0.495475	-0.038845	1.749168
49.688091	599.747739	0.500480	-0.038922	1.754288
49.913794	605.771491	0.505485	-0.038966	1.759341
50.651160	611.728632	0.510490	-0.039106	1.764473
50.910950	617.798265	0.515494	-0.039156	1.769544
51.240422	623.812105	0.520499	-0.039220	1.774574
51.457473	629.841774	0.525504	-0.039262	1.779572
51.748663	635.846253	0.530509	-0.039318	1.784556
51.862394	641.871820	0.535514	-0.039341	1.789492
52.213401	647.858523	0.540518	-0.039408	1.794451
52.401019	653.901418	0.545523	-0.039445	1.799395
52.667704	659.897917	0.550528	-0.039496	1.804310
52.970469	665.907834	0.555533	-0.039555	1.809233
53.269830	671.935508	0.560538	-0.039612	1.814156
53.627231	677.933329	0.565542	-0.039681	1.819058
53.875824	683.957949	0.570547	-0.039729	1.823937
54.129327	689.964921	0.575552	-0.039778	1.828791
54.541777	695.972536	0.580557	-0.039857	1.833676
54.698378	702.017549	0.585562	-0.039888	1.838508
54.981457	708.021960	0.590566	-0.039942	1.843329
55.205239	714.033727	0.595571	-0.039986	1.848127
55.458660	720.043929	0.600576	-0.040035	1.852920
55.797712	726.048010	0.605581	-0.040100	1.857718
55.919248	732.088261	0.610586	-0.040124	1.862474
56.320963	738.065006	0.615590	-0.040201	1.867243
56.451705	744.103596	0.620595	-0.040227	1.871976
56.781056	750.110655	0.625600	-0.040291	1.876725
56.971908	756.126044	0.630605	-0.040328	1.881432
57.316877	762.127179	0.635610	-0.040394	1.886157
57.808221	768.121464	0.640614	-0.040488	1.890904
57.912805	774.182982	0.645619	-0.040509	1.895587
58.166111	780.181809	0.650624	-0.040558	1.900251
58.461602	786.157967	0.655629	-0.040615	1.904897
58.766016	792.208090	0.660634	-0.040673	1.909590
59.082058	798.194024	0.665638	-0.040734	1.914226
59.512265	804.240458	0.670643	-0.040816	1.918926
59.742012	810.213924	0.675648	-0.040861	1.923507
60.108779	816.265946	0.680653	-0.040931	1.928172
60.315859	822.257038	0.685658	-0.040972	1.932739
60.672703	828.283043	0.690662	-0.041040	1.937360
60.760860	834.292666	0.695667	-0.041058	1.941888
61.173772	840.295177	0.700672	-0.041137	1.946483
61.275089	846.320413	0.705677	-0.041158	1.951005
61.587743	852.342607	0.710682	-0.041218	1.955568
61.814743	858.329373	0.715686	-0.041262	1.960072
62.248624	864.320162	0.720691	-0.041345	1.964622
62.517695	870.369951	0.725696	-0.041397	1.969163
62.921434	876.369289	0.730701	-0.041474	1.973690
62.986703	882.406960	0.735706	-0.041488	1.978149
63.350539	888.413707	0.740710	-0.041557	1.982651
63.507815	894.410044	0.745715	-0.041588	1.987083
63.903018	900.406315	0.750720	-0.041664	1.991564
64.135272	906.440260	0.755725	-0.041709	1.996023
64.313102	912.463864	0.760730	-0.041744	2.000450
64.440377	918.459779	0.765734	-0.041769	2.004835
64.679588	924.501389	0.770739	-0.041816	2.009270
64.739097	930.510881	0.775744	-0.041828	2.013629
65.115234	936.514412	0.780749	-0.041901	2.018052
65.358758	942.499344	0.785754	-0.041948	2.022419
65.667851	948.520765	0.790758	-0.042007	2.026819
65.863671	954.524073	0.795763	-0.042045	2.031168
66.255155	960.540967	0.800768	-0.042120	2.035566
66.322770	966.573623	0.805773	-0.042135	2.039886
66.614288	972.575908	0.810778	-0.042191	2.044230
66.715112	978.600639	0.815782	-0.042211	2.048535
67.044378	984.583001	0.820787	-0.042274	2.052856
67.135645	990.640167	0.825792	-0.042293	2.057163
67.350409	996.629784	0.830797	-0.042335	2.061443
67.482370	1002.621438	0.835802	-0.042361	2.065696
67.798510	1008.641385	0.840806	-0.042422	2.070004
67.947115	1014.647864	0.845811	-0.042451	2.074253
68.223509	1020.684094	0.850816	-0.042505	2.078545
68.225394	1026.704445	0.855821	-0.042506	2.082752
68.692479	1032.661047	0.860826	-0.042596	2.087016
68.926671	1038.704179	0.865830	-0.042641	2.091277
69.208171	1044.713452	0.870835	-0.042695	2.095516
69.282408	1050.732173	0.875840	-0.042711	2.099705
69.527603	1056.730809	0.880845	-0.042758	2.103911
69.768580	1062.734978	0.885850	-0.042805	2.108112
70.054414	1068.749790	0.890854	-0.042860	2.112322
70.476329	1074.755387	0.895859	-0.042941	2.116549
70.823572	1080.767700	0.900864	-0.043007	2.120755
70.917312	1086.802011	0.905869	-0.043026	2.124909
71.233224	1092.798300	0.910874	-0.043087	2.129080
71.347837	1098.814860	0.915878	-0.043110	2.133210
71.597363	1104.841718	0.920883	-0.043158	2.137370
71.649369	1110.842578	0.925888	-0.043170	2.141459
72.036684	1116.847169	0.930893	-0.043244	2.145620
72.236924	1122.831284	0.935898	-0.043283	2.149716
72.679941	1128.862938	0.940902	-0.043368	2.153891
72.813368	1134.885850	0.945907	-0.043394	2.157982
72.902451	1140.922943	0.950912	-0.043412	2.162065
73.128494	1146.896142	0.955917	-0.043456	2.166128
73.469400	1152.902974	0.960922	-0.043522	2.170232
73.464310	1158.948845	0.965926	-0.043522	2.174276
73.776456	1164.941492	0.970931	-0.043582	2.178349
73.845737	1170.952680	0.975936	-0.043597	2.182372
74.120110	1176.964888	0.980941	-0.043650	2.186434
74.259902	1182.951353	0.985946	-0.043677	2.190441
74.562487	1188.979873	0.990950	-0.043736	2.194505
74.647080	1194.991393	0.995955	-0.043753	2.198502
74.999490	1200.988785	1.000960	-0.043821	2.202541
75.157215	1207.018396	1.005965	-0.043852	2.206551
75.483984	1213.021539	1.010970	-0.043915	2.210574
75.676417	1219.030678	1.015974	-0.043952	2.214564
75.827246	1225.046636	1.020979	-0.043982	2.218542
76.029294	1231.038750	1.025984	-0.044021	2.222508
76.311028	1237.087353	1.030989	-0.044076	2.226521
76.436410	1243.060394	1.035994	-0.044101	2.230444
76.778488	1249.085737	1.040998	-0.044166	2.234441
77.110576	1255.076955	1.046003	-0.044230	2.238407
77.372207	1261.111504	1.051008	-0.044281	2.242378
77.424899	1267.144108	1.056013	-0.044292	2.246296
77.669306	1273.109900	1.061018	-0.044339	2.250206
77.886411	1279.138473	1.066022	-0.044382	2.254143
78.104259	1285.155708	1.071027	-0.044424	2.258065
78.260651	1291.171247	1.076032	-0.044455	2.261967
78.599639	1297.154376	1.081037	-0.044520	2.265881
78.634427	1303.181462	1.086042	-0.044528	2.269751
78.963834	1309.195254	1.091046	-0.044591	2.273668
79.104521	1315.193561	1.096051	-0.044619	2.277529
79.356785	1321.213914	1.101056	-0.044668	2.281420
79.496356	1327.230598	1.106061	-0.044696	2.285279
79.714975	1333.214653	1.111066	-0.044738	2.289128
79.937430	1339.227404	1.116070	-0.044781	2.292988
80.364643	1345.238189	1.121075	-0.044863	2.296884
80.500511	1351.262824	1.126080	-0.044890	2.300721
80.815203	1357.276845	1.131085	-0.044951	2.304583
81.088879	1363.245859	1.136090	-0.045003	2.308401
81.541738	1369.265866	1.141094	-0.045090	2.312281
81.778027	1375.315435	1.146099	-0.045136	2.316129
81.990718	1381.300826	1.151104	-0.045177	2.319926
82.176037	1387.322712	1.156109	-0.045213	2.323733
82.436458	1393.327860	1.161114	-0.045264	2.327539
82.777469	1399.314489	1.166118	-0.045329	2.331344
83.004930	1405.375954	1.171123	-0.045373	2.335166
83.248116	1411.340358	1.176128	-0.045421	2.338924
83.575350	1417.365662	1.181133	-0.045483	2.342731
83.803848	1423.369513	1.186138	-0.045528	2.346499
84.026949	1429.405435	1.191142	-0.045571	2.350279
84.266806	1435.391388	1.196147	-0.045618	2.354026
84.528416	1441.401716	1.201152	-0.045668	2.357786
84.780889	1447.401521	1.206157	-0.045717	2.361532
85.007157	1453.460578	1.211162	-0.045761	2.365303
85.079651	1459.440738	1.216166	-0.045776	2.368988
85.469136	1465.435668	1.221171	-0.045851	2.372741
85.641499	1471.464609	1.226176	-0.045884	2.376464
85.929049	1477.459789	1.231181	-0.045940	2.380185
85.973669	1483.482929	1.236186	-0.045950	2.383868
86.248003	1489.504618	1.241190	-0.046003	2.387590
86.384660	1495.502617	1.246195	-0.046030	2.391265
86.487745	1501.528652	1.251200	-0.046051	2.394944
86.630770	1507.508468	1.256205	-0.046079	2.398597
86.753701	1513.545632	1.261210	-0.046104	2.402276
87.008549	1519.538226	1.266214	-0.046153	2.405948
87.165961	1525.569134	1.271219	-0.046184	2.409619
87.375205	1531.546570	1.276224	-0.046225	2.413261
87.447386	1537.586461	1.281229	-0.046240	2.416909
87.641701	1543.568433	1.286234	-0.046278	2.420541
87.924829	1549.584532	1.291238	-0.046332	2.424205
88.142772	1555.569104	1.296243	-0.046375	2.427831
88.493440	1561.606084	1.301248	-0.046442	2.431510
88.535475	1567.637223	1.306253	-0.046451	2.435119
88.795367	1573.610198	1.311258	-0.046502	2.438730
88.901764	1579.627673	1.316262	-0.046523	2.442333
89.216064	1585.643369	1.321267	-0.046583	2.445970
89.324316	1591.653825	1.326272	-0.046605	2.449559
89.547592	1597.675139	1.331277	-0.046649	2.453170
89.789386	1603.650931	1.336282	-0.046696	2.456753
90.038885	1609.698172	1.341286	-0.046744	2.460375
90.180748	1615.671582	1.346291	-0.046772	2.463926
90.697809	1621.661359	1.351296	-0.046870	2.467554
90.675315	1627.755314	1.356301	-0.046868	2.471135
91.061155	1633.715117	1.361306	-0.046942	2.474710
91.123722	1639.711662	1.366310	-0.046955	2.478240
91.406160	1645.739090	1.371315	-0.047009	2.481824
91.648233	1651.739622	1.376320	-0.047056	2.485380
91.927022	1657.754469	1.381325	-0.047110	2.488946
92.148799	1663.768970	1.386330	-0.047153	2.492496
92.258207	1669.809682	1.391334	-0.047175	2.496035
92.284967	1675.793032	1.396339	-0.047182	2.499520
92.653156	1681.771851	1.401344	-0.047252	2.503061
92.843864	1687.788292	1.406349	-0.047289	2.506586
93.063845	1693.823888	1.411354	-0.047332	2.510123
93.251469	1699.812672	1.416358	-0.047369	2.513622
93.407814	1705.844343	1.421363	-0.047400	2.517134
93.614844	1711.844437	1.426368	-0.047440	2.520633
93.931151	1717.856171	1.431373	-0.047501	2.524154
94.104060	1723.845713	1.436378	-0.047535	2.527630
94.304093	1729.868112	1.441382	-0.047574	2.531126
94.401970	1735.919496	1.446387	-0.047594	2.534615
94.600134	1741.860416	1.451392	-0.047632	2.538054
94.749633	1747.899146	1.456397	-0.047662	2.541535
95.002823	1753.907595	1.461402	-0.047711	2.545013
95.029026	1759.918786	1.466406	-0.047717	2.548447
95.309883	1765.922724	1.471411	-0.047772	2.551918
95.390316	1771.954651	1.476416	-0.047788	2.555364
95.584990	1777.940397	1.481421	-0.047826	2.558800
95.680466	1783.959688	1.486426	-0.047846	2.562232
95.998565	1789.952161	1.491430	-0.047907	2.565685
96.216444	1795.965878	1.496435	-0.047949	2.569127
96.503051	1801.985807	1.501440	-0.048004	2.572580
96.691414	1808.025703	1.506445	-0.048041	2.576022
96.914965	1814.016038	1.511450	-0.048085	2.579437
97.180788	1819.985751	1.516454	-0.048136	2.582845
97.656925	1825.958857	1.521459	-0.048227	2.586287
98.164019	1832.015035	1.526464	-0.048323	2.589776
98.502632	1838.026601	1.531469	-0.048388	2.593206
98.578153	1844.037347	1.536474	-0.048404	2.596584
98.697733	1850.072715	1.541478	-0.048428	2.599979
99.030907	1856.028940	1.546483	-0.048492	2.603364
99.280305	1862.073814	1.551488	-0.048540	2.606778
99.479483	1868.073999	1.556493	-0.048579	2.610155
99.581042	1874.093947	1.561498	-0.048600	2.613520
99.776365	1880.080206	1.566502	-0.048638	2.616879
100.107286	1886.108798	1.571507	-0.048701	2.620281
100.283788	1892.113984	1.576512	-0.048736	2.623639
100.488464	1898.124005	1.581517	-0.048776	2.627000
100.642488	1904.122552	1.586522	-0.048806	2.630341
100.747976	1910.159179	1.591526	-0.048828	2.633691
100.800791	1916.157855	1.596531	-0.048839	2.637006
101.085556	1922.155583	1.601536	-0.048894	2.640357
101.212771	1928.177326	1.606541	-0.048919	2.643689
101.424040	1934.175695	1.611546	-0.048960	2.647019
101.470876	1940.194582	1.616550	-0.048971	2.650328
101.775737	1946.191629	1.621555	-0.049029	2.653665
101.915764	1952.197810	1.626560	-0.049057	2.656974
102.305132	1958.202287	1.631565	-0.049132	2.660321
102.378725	1964.236082	1.636570	-0.049147	2.663626
102.549271	1970.203939	1.641574	-0.049181	2.666907
102.809678	1976.239418	1.646579	-0.049231	2.670236
103.014844	1982.253417	1.651584	-0.049271	2.673540
103.138966	1988.254987	1.656589	-0.049296	2.676820
103.356198	1994.265897	1.661594	-0.049338	2.680116
103.629702	2000.266711	1.666598	-0.049391	2.683412
103.975113	2006.268149	1.671603	-0.049457	2.686717
104.141688	2012.289883	1.676608	-0.049490	2.689998
104.272951	2018.317408	1.681613	-0.049516	2.693272
104.371169	2024.287924	1.686618	-0.049536	2.696506
104.653896	2030.332736	1.691622	-0.049590	2.699808
104.765504	2036.321851	1.696627	-0.049613	2.703046
105.058520	2042.331346	1.701632	-0.049669	2.706322
105.221536	2048.331851	1.706637	-0.049701	2.709567
105.499876	2054.351480	1.711642	-0.049755	2.712838
105.689807	2060.345430	1.716646	-0.049792	2.716077
105.870269	2066.384109	1.721651	-0.049827	2.719334
106.291414	2072.342837	1.726656	-0.049908	2.722584
106.492618	2078.403873	1.731661	-0.049947	2.725848
106.633433	2084.403698	1.736666	-0.049975	2.729066
106.922475	2090.391001	1.741670	-0.050031	2.732298
106.890251	2096.430836	1.746675	-0.050026	2.735501
107.168203	2102.429570	1.751680	-0.050080	2.738729
107.371440	2108.407506	1.756685	-0.050120	2.741931
107.647884	2114.425896	1.761690	-0.050173	2.745162
107.782608	2120.431155	1.766694	-0.050200	2.748359
108.116855	2126.461454	1.771699	-0.050264	2.751598
108.296021	2132.457155	1.776704	-0.050299	2.754789
108.404849	2138.484697	1.781709	-0.050321	2.757982
108.637639	2144.466648	1.786714	-0.050366	2.761168
108.829357	2150.505826	1.791718	-0.050404	2.764373
108.948438	2156.485963	1.796723	-0.050427	2.767532
109.126025	2162.515678	1.801728	-0.050462	2.770723
109.321670	2168.514676	1.806733	-0.050500	2.773897
109.419965	2174.525081	1.811738	-0.050520	2.777057
109.622575	2180.525128	1.816742	-0.050560	2.780225
109.797512	2186.573611	1.821747	-0.050594	2.783411
109.929044	2192.515516	1.826752	-0.050620	2.786530
110.136982	2198.556368	1.831757	-0.050661	2.789709
110.245804	2204.587958	1.836762	-0.050683	2.792865
110.486847	2210.561668	1.841766	-0.050729	2.796007
110.585293	2216.595789	1.846771	-0.050749	2.799155
110.775908	2222.603586	1.851776	-0.050787	2.802300
110.862813	2228.597073	1.856781	-0.050804	2.805418
110.965140	2234.625153	1.861786	-0.050825	2.808552
111.127627	2240.612533	1.866790	-0.050857	2.811672
111.451742	2246.617562	1.871795	-0.050919	2.814822
111.516433	2252.640080	1.876800	-0.050933	2.817937
111.889044	2258.636722	1.881805	-0.051004	2.821084
112.029078	2264.616880	1.886810	-0.051032	2.824183
112.341101	2270.664070	1.891814	-0.051092	2.827339
112.487961	2276.653171	1.896819	-0.051121	2.830436
112.837895	2282.694610	1.901824	-0.051188	2.833588
112.903197	2288.667839	1.906829	-0.051202	2.836658
113.053259	2294.693103	1.911834	-0.051232	2.839763
113.270431	2300.710053	1.916838	-0.051274	2.842872
113.622134	2306.692026	1.921843	-0.051342	2.845980
113.697181	2312.727247	1.926848	-0.051357	2.849069
114.085066	2318.733099	1.931853	-0.051431	2.852188
114.179452	2324.711266	1.936858	-0.051451	2.855244
114.588897	2330.730167	1.941862	-0.051529	2.858367
114.790106	2336.747981	1.946867	-0.051568	2.861453
115.070811	2342.748832	1.951872	-0.051622	2.864539
115.359829	2348.773541	1.956877	-0.051678	2.867636
115.437182	2354.795253	1.961882	-0.051694	2.870695
115.624391	2360.764085	1.966886	-0.051731	2.873740
115.873751	2366.798433	1.971891	-0.051779	2.876826
115.964802	2372.802033	1.976896	-0.051797	2.879868
116.229294	2378.835029	1.981901	-0.051849	2.882948
116.370749	2384.802743	1.986906	-0.051877	2.885973
116.612262	2390.834071	1.991910	-0.051923	2.889042
116.816811	2396.822220	1.996915	-0.051963	2.892081
