Fri Jan 13 17:27:19 2023

Number of Points = 3000
Depth (nm)	Load (µN)	Time (s)	Depth (V)	Load (V)
-1.331407	1.926319	0.000000	-0.007377	1.076579
0.000000	4.833922	0.005005	-0.007628	1.081181
1.300166	9.452776	0.010010	-0.007873	1.088047
2.729954	15.128291	0.015014	-0.008142	1.096343
3.849385	21.186897	0.020019	-0.008354	1.104931
5.107795	27.162977	0.025024	-0.008592	1.113411
6.060543	33.287012	0.030029	-0.008772	1.121873
6.911060	39.361293	0.035034	-0.008933	1.130158
7.586205	45.455364	0.040038	-0.009061	1.138326
8.226290	51.485623	0.045043	-0.009183	1.146337
8.848548	57.545235	0.050048	-0.009301	1.154321
9.597601	63.543185	0.055053	-0.009443	1.162231
10.329664	69.586139	0.060058	-0.009582	1.170135
11.086986	75.622005	0.065062	-0.009725	1.177989
11.502761	81.741896	0.070067	-0.009805	1.185740
12.093292	87.715790	0.075072	-0.009917	1.193340
12.946551	93.731473	0.080077	-0.010079	1.201060
13.543000	99.778646	0.085082	-0.010192	1.208654
14.121175	105.848598	0.090086	-0.010302	1.216220
14.696253	111.874771	0.095091	-0.010412	1.223686
15.224964	117.923406	0.100096	-0.010512	1.231113
15.779415	123.930222	0.105101	-0.010618	1.238456
16.317151	129.991172	0.110106	-0.010720	1.245812
16.853245	135.992910	0.115110	-0.010822	1.253056
17.380120	142.066180	0.120115	-0.010923	1.260336
17.745752	148.091616	0.125120	-0.010993	1.267452
18.306407	154.102928	0.130125	-0.011100	1.274593
18.808102	160.128003	0.135130	-0.011195	1.281685
19.352375	166.177358	0.140134	-0.011299	1.288783
19.729185	172.212895	0.145139	-0.011371	1.295758
20.381039	178.258858	0.150144	-0.011495	1.302819
20.743566	184.287395	0.155149	-0.011564	1.309705
21.259045	190.283940	0.160154	-0.011663	1.316581
21.708460	196.309018	0.165158	-0.011748	1.323426
22.223462	202.326880	0.170163	-0.011847	1.330254
22.833753	208.328685	0.175168	-0.011963	1.337067
23.170829	214.431055	0.180173	-0.012027	1.343847
23.597782	220.412081	0.185178	-0.012109	1.350497
24.229178	226.422000	0.190182	-0.012229	1.357225
24.537922	232.496012	0.195187	-0.012288	1.363863
25.072128	238.480282	0.200192	-0.012390	1.370460
25.582128	244.506833	0.205197	-0.012487	1.377061
25.929013	250.592816	0.210202	-0.012554	1.383630
26.234358	256.583333	0.215206	-0.012613	1.390053
26.642593	262.602944	0.220211	-0.012691	1.396515
27.236228	268.573366	0.225216	-0.012804	1.402966
27.624780	274.660408	0.230221	-0.012878	1.409431
27.823560	280.701034	0.235226	-0.012917	1.415748
28.303352	286.682581	0.240230	-0.013008	1.422080
28.836711	292.693209	0.245235	-0.013110	1.428433
29.370905	298.716330	0.250240	-0.013212	1.434771
29.790936	304.736930	0.255245	-0.013292	1.441037
30.340272	310.766477	0.260250	-0.013396	1.447332
30.645971	316.818405	0.265254	-0.013455	1.453533
31.144093	322.827392	0.270259	-0.013550	1.459735
31.309213	328.878090	0.275264	-0.013583	1.465832
31.869872	334.842821	0.280269	-0.013689	1.471960
32.237326	340.885969	0.285274	-0.013760	1.478071
32.558201	346.947425	0.290278	-0.013822	1.484158
32.679492	352.971519	0.295283	-0.013846	1.490113
33.271514	358.908802	0.300288	-0.013958	1.496125
33.601007	364.975643	0.305293	-0.014022	1.502147
34.095972	370.978279	0.310298	-0.014116	1.508141
34.520542	377.006946	0.315302	-0.014197	1.514111
35.176725	382.998025	0.320307	-0.014322	1.520101
35.460406	389.058476	0.325312	-0.014377	1.526006
35.890352	395.071404	0.330317	-0.014459	1.531893
36.336546	401.073952	0.335322	-0.014544	1.537752
36.799541	407.121410	0.340326	-0.014632	1.543638
37.008850	413.152492	0.345331	-0.014673	1.549400
37.447708	419.139869	0.350336	-0.014757	1.555177
37.649508	425.202170	0.355341	-0.014796	1.560923
38.440298	431.095234	0.360346	-0.014946	1.566687
39.036605	437.182955	0.365350	-0.015059	1.572545
39.395289	443.228355	0.370355	-0.015128	1.578263
39.892979	449.219975	0.375360	-0.015223	1.583957
40.140919	455.295907	0.380365	-0.015271	1.589627
40.708408	461.231364	0.385370	-0.015379	1.595251
41.127552	467.298677	0.390374	-0.015459	1.600928
41.582305	473.292025	0.395379	-0.015546	1.606529
42.009547	479.339738	0.400384	-0.015628	1.612151
42.270707	485.356140	0.405389	-0.015678	1.617671
42.783062	491.385541	0.410394	-0.015776	1.623265
43.199076	497.371968	0.415398	-0.015855	1.628770
43.629384	503.390835	0.420403	-0.015938	1.634289
44.061854	509.397154	0.425408	-0.016020	1.639780
44.367581	515.467108	0.430413	-0.016079	1.645269
44.821123	521.428072	0.435418	-0.016166	1.650689
45.254004	527.497255	0.440422	-0.016248	1.656181
45.421009	533.503461	0.445427	-0.016281	1.661516
45.825822	539.506581	0.450432	-0.016359	1.666905
46.070309	545.539407	0.455437	-0.016406	1.672253
46.560503	551.537694	0.460442	-0.016500	1.677629
46.790607	557.566141	0.465446	-0.016544	1.682935
47.251146	563.578422	0.470451	-0.016632	1.688280
47.554346	569.588086	0.475456	-0.016691	1.693558
48.011216	575.622682	0.480461	-0.016778	1.698888
48.079370	581.645939	0.485466	-0.016792	1.704073
48.486970	587.644934	0.490470	-0.016870	1.709325
48.778916	593.662824	0.495475	-0.016926	1.714541
49.051070	599.696500	0.500480	-0.016979	1.719749
49.260134	605.691348	0.505485	-0.017020	1.724890
49.650929	611.698346	0.510490	-0.017094	1.730080
50.274823	617.679978	0.515494	-0.017213	1.735301
50.435140	623.760667	0.520499	-0.017244	1.740453
50.603979	629.775551	0.525504	-0.017278	1.745538
50.998319	635.771124	0.530509	-0.017353	1.750657
51.247468	641.782992	0.535514	-0.017401	1.755733
51.670746	647.790476	0.540518	-0.017482	1.760841
52.015611	653.806650	0.545523	-0.017548	1.765918
52.437459	659.819296	0.550528	-0.017629	1.771000
52.752399	665.832721	0.555533	-0.017690	1.776038
53.256708	671.846843	0.560538	-0.017786	1.781116
53.407327	677.888768	0.565542	-0.017816	1.786100
53.909175	683.871972	0.570547	-0.017911	1.791124
54.082571	689.906459	0.575552	-0.017945	1.796081
54.434459	695.924719	0.580557	-0.018013	1.801062
54.566347	701.941544	0.585562	-0.018039	1.805966
55.016694	707.934934	0.590566	-0.018125	1.810928
55.236671	713.978783	0.595571	-0.018168	1.815852
55.620087	719.968044	0.600576	-0.018241	1.820764
55.831888	725.987555	0.605581	-0.018282	1.825639
56.186031	732.001013	0.610586	-0.018350	1.830536
56.560149	738.008155	0.615590	-0.018422	1.835421
56.788923	744.049534	0.620595	-0.018466	1.840279
56.983780	750.048886	0.625600	-0.018505	1.845082
57.396379	756.051863	0.630605	-0.018583	1.849935
57.769338	762.055538	0.635610	-0.018655	1.854765
58.028900	768.096461	0.640614	-0.018705	1.859580
58.260310	774.110283	0.645619	-0.018750	1.864354
58.545001	780.118692	0.650624	-0.018805	1.869127
58.960640	786.103744	0.655629	-0.018884	1.873904
59.344841	792.143240	0.660634	-0.018958	1.878702
59.348828	798.185858	0.665638	-0.018960	1.883389
59.869407	804.153879	0.670643	-0.019059	1.888145
60.163627	810.157506	0.675648	-0.019116	1.892855
60.452845	816.213514	0.680653	-0.019172	1.897593
60.523376	822.223125	0.685658	-0.019187	1.902225
60.956182	828.210626	0.690662	-0.019269	1.906925
61.223747	834.210240	0.695667	-0.019321	1.911579
61.626458	840.259677	0.700672	-0.019398	1.916295
61.862925	846.253677	0.705677	-0.019444	1.920914
62.048738	852.304409	0.710682	-0.019480	1.925551
62.309869	858.264605	0.715686	-0.019531	1.930129
62.673861	864.315771	0.720691	-0.019601	1.934791
62.753653	870.335762	0.725696	-0.019617	1.939344
63.521259	876.249903	0.730701	-0.019762	1.943985
63.976883	882.297258	0.735706	-0.019849	1.948634
64.365492	888.340655	0.740710	-0.019924	1.953252
64.706385	894.358026	0.745715	-0.019989	1.957827
64.924684	900.402869	0.750720	-0.020032	1.962380
65.344907	906.336098	0.755725	-0.020112	1.966892
65.661046	912.406161	0.760730	-0.020173	1.971468
65.843695	918.417284	0.765734	-0.020209	1.975956
66.239870	924.410672	0.770739	-0.020285	1.980474
66.498960	930.439564	0.775744	-0.020335	1.984974
66.799768	936.445319	0.780749	-0.020393	1.989457
67.065675	942.450037	0.785754	-0.020444	1.993921
67.476630	948.477371	0.790758	-0.020523	1.998427
67.625747	954.485030	0.795763	-0.020552	2.002843
68.032540	960.509359	0.800768	-0.020630	2.007326
68.356001	966.488277	0.805773	-0.020692	2.011745
68.701590	972.522543	0.810778	-0.020758	2.016200
68.702637	978.566641	0.815782	-0.020760	2.020566
69.258802	984.503336	0.820787	-0.020866	2.024983
69.550972	990.543618	0.825792	-0.020922	2.029400
69.854875	996.577255	0.830797	-0.020981	2.033805
70.083739	1002.579450	0.835802	-0.021025	2.038160
70.365172	1008.619640	0.840806	-0.021079	2.042545
70.561487	1014.593247	0.845811	-0.021118	2.046853
70.907725	1020.618109	0.850816	-0.021184	2.051224
71.083764	1026.629705	0.855821	-0.021219	2.055536
71.394620	1032.644780	0.860826	-0.021279	2.059873
71.645316	1038.651140	0.865830	-0.021327	2.064181
71.929051	1044.670577	0.870835	-0.021382	2.068497
72.112831	1050.676752	0.875840	-0.021418	2.072770
72.599720	1056.688056	0.880845	-0.021511	2.077110
72.787285	1062.692069	0.885850	-0.021547	2.081365
73.103029	1068.706545	0.890854	-0.021608	2.085649
73.263406	1074.736352	0.895859	-0.021640	2.089898
73.743781	1080.719533	0.900864	-0.021731	2.094182
73.826624	1086.766521	0.905869	-0.021748	2.098407
74.119413	1092.751665	0.910874	-0.021805	2.102631
74.323442	1098.779448	0.915878	-0.021844	2.106854
74.533628	1104.791003	0.920883	-0.021885	2.111059
74.819691	1110.770266	0.925888	-0.021941	2.115251
75.176998	1116.799742	0.930893	-0.022009	2.119486
75.365764	1122.809522	0.935898	-0.022046	2.123660
75.700664	1128.827694	0.940902	-0.022110	2.127865
75.711323	1134.867020	0.945907	-0.022114	2.132002
76.070630	1140.848340	0.950912	-0.022183	2.136171
76.106142	1146.868761	0.955917	-0.022191	2.140284
76.450549	1152.852803	0.960922	-0.022257	2.144435
76.713090	1158.877085	0.965926	-0.022308	2.148587
77.052336	1164.901014	0.970931	-0.022373	2.152748
77.223945	1170.910287	0.975936	-0.022407	2.156853
77.326847	1176.926784	0.980941	-0.022427	2.160939
77.631359	1182.923054	0.985946	-0.022486	2.165050
77.988191	1188.918052	0.990950	-0.022554	2.169163
78.384731	1194.925615	0.995955	-0.022630	2.173287
78.685156	1200.974954	1.000960	-0.022688	2.177408
78.988465	1206.956122	1.005965	-0.022747	2.181477
79.296806	1212.975609	1.010970	-0.022806	2.185565
79.526861	1218.972450	1.015974	-0.022851	2.189613
79.983859	1224.989020	1.020979	-0.022938	2.193717
80.160030	1231.008165	1.025984	-0.022972	2.197752
80.368766	1237.054974	1.030989	-0.023013	2.201806
80.514793	1243.035400	1.035994	-0.023042	2.205794
80.738773	1249.034754	1.040998	-0.023085	2.209804
80.979051	1255.066314	1.046003	-0.023132	2.213833
81.368444	1261.042090	1.051008	-0.023207	2.217850
81.580842	1267.081833	1.056013	-0.023248	2.221862
81.932288	1273.100754	1.061018	-0.023315	2.225884
82.113631	1279.081698	1.066022	-0.023351	2.229837
82.339839	1285.126856	1.071027	-0.023395	2.233835
82.440183	1291.121538	1.076032	-0.023415	2.237765
82.806128	1297.125861	1.081037	-0.023485	2.241752
82.854344	1303.182472	1.086042	-0.023496	2.245697
83.150018	1309.128028	1.091046	-0.023553	2.249617
83.278037	1315.181103	1.096051	-0.023578	2.253563
83.520910	1321.196506	1.101056	-0.023625	2.257503
83.596298	1327.199188	1.106061	-0.023641	2.261392
84.075650	1333.169101	1.111066	-0.023732	2.265339
84.348687	1339.169372	1.116070	-0.023785	2.269255
84.990187	1345.165888	1.121075	-0.023907	2.273240
85.186343	1351.230479	1.126080	-0.023945	2.277167
85.538657	1357.231881	1.131085	-0.024013	2.281079
85.632250	1363.249495	1.136090	-0.024032	2.284941
86.135270	1369.221478	1.141094	-0.024128	2.288853
86.212157	1375.290159	1.146099	-0.024144	2.292731
86.481749	1381.290073	1.151104	-0.024196	2.296598
86.699251	1387.264621	1.156109	-0.024238	2.300433
87.016730	1393.294217	1.161114	-0.024299	2.304316
87.014500	1399.319169	1.166118	-0.024300	2.308123
87.364736	1405.318960	1.171123	-0.024367	2.311982
87.465610	1411.345290	1.176128	-0.024388	2.315798
87.780054	1417.310585	1.181133	-0.024448	2.319615
87.857762	1423.378596	1.186138	-0.024464	2.323441
88.230534	1429.331357	1.191142	-0.024536	2.327249
88.450352	1435.373120	1.196147	-0.024579	2.331074
88.789595	1441.379864	1.201152	-0.024644	2.334897
88.952509	1447.358173	1.206157	-0.024676	2.338659
89.224245	1453.418534	1.211162	-0.024728	2.342488
89.483480	1459.396659	1.216166	-0.024778	2.346257
89.868837	1465.396976	1.221171	-0.024852	2.350060
89.937586	1471.447205	1.226176	-0.024867	2.353823
90.107086	1477.449552	1.231181	-0.024900	2.357571
90.126134	1483.465006	1.236186	-0.024905	2.361290
90.432815	1489.462609	1.241190	-0.024964	2.365051
90.624612	1495.451409	1.246195	-0.025001	2.368777
90.855048	1501.484134	1.251200	-0.025046	2.372532
91.085889	1507.495679	1.256205	-0.025091	2.376268
91.402851	1513.483291	1.261210	-0.025152	2.380001
91.529305	1519.511079	1.266214	-0.025177	2.383714
91.775971	1525.508488	1.271219	-0.025225	2.387427
91.980020	1531.530670	1.276224	-0.025265	2.391141
92.422025	1537.521723	1.281229	-0.025349	2.394878
92.578279	1543.543755	1.286234	-0.025380	2.398570
92.780345	1549.561764	1.291238	-0.025419	2.402264
92.827706	1555.596451	1.296243	-0.025430	2.405931
93.179993	1561.568941	1.301248	-0.025497	2.409615
93.317715	1567.577724	1.306253	-0.025525	2.413273
93.790798	1573.560377	1.311258	-0.025615	2.416976
94.182967	1579.589611	1.316262	-0.025690	2.420685
94.680909	1585.578102	1.321267	-0.025785	2.424385
94.819605	1591.616964	1.326272	-0.025812	2.428039
95.187135	1597.642109	1.331277	-0.025883	2.431724
95.341740	1603.652845	1.336282	-0.025913	2.435353
95.721166	1609.626718	1.341286	-0.025986	2.438999
95.876869	1615.652216	1.346291	-0.026017	2.442626
96.079994	1621.695759	1.351296	-0.026056	2.446268
96.237908	1627.671295	1.356301	-0.026087	2.449855
96.485135	1633.716615	1.361306	-0.026135	2.453496
96.582053	1639.686950	1.366310	-0.026155	2.457057
96.905818	1645.710819	1.371315	-0.026217	2.460689
97.068487	1651.708417	1.376320	-0.026249	2.464269
97.295318	1657.734529	1.381325	-0.026293	2.467873
97.366095	1663.744438	1.386330	-0.026308	2.471432
97.651051	1669.774619	1.391334	-0.026363	2.475039
97.728873	1675.746198	1.396339	-0.026379	2.478567
97.974494	1681.766758	1.401344	-0.026427	2.482150
98.007596	1687.790861	1.406349	-0.026434	2.485690
98.381716	1693.786759	1.411354	-0.026506	2.489273
98.497491	1699.789536	1.416358	-0.026529	2.492806
98.879566	1705.795220	1.421363	-0.026602	2.496385
99.052175	1711.815515	1.426368	-0.026636	2.499929
99.331084	1717.837575	1.431373	-0.026690	2.503488
99.554066	1723.795388	1.436378	-0.026733	2.506995
99.833203	1729.852030	1.441382	-0.026787	2.510565
99.958454	1735.854990	1.446387	-0.026812	2.514069
100.217389	1741.873042	1.451392	-0.026862	2.517603
100.342672	1747.852510	1.456397	-0.026887	2.521084
100.614292	1753.901229	1.461402	-0.026940	2.524627
100.828045	1759.869438	1.466406	-0.026981	2.528109
101.017967	1765.920145	1.471411	-0.027019	2.531628
100.948268	1771.930460	1.476416	-0.027007	2.535072
101.452273	1777.874474	1.481421	-0.027103	2.538578
101.515702	1783.937027	1.486426	-0.027116	2.542067
101.838072	1789.924976	1.491430	-0.027178	2.545555
101.994891	1795.941908	1.496435	-0.027209	2.549025
102.275646	1801.954284	1.501440	-0.027264	2.552510
102.456518	1807.957480	1.506445	-0.027299	2.555967
102.755625	1813.981039	1.511450	-0.027357	2.559453
102.923100	1819.971354	1.516454	-0.027389	2.562891
103.224467	1825.986181	1.521459	-0.027447	2.566362
103.228919	1832.021037	1.526464	-0.027450	2.569786
103.813528	1837.985480	1.531469	-0.027561	2.573271
103.782947	1844.080708	1.536474	-0.027557	2.576714
103.910984	1850.050823	1.541478	-0.027582	2.580110
104.148603	1856.018613	1.546483	-0.027628	2.583520
104.381580	1862.036969	1.551488	-0.027674	2.586953
104.615659	1868.047321	1.556493	-0.027719	2.590377
104.835576	1874.072529	1.561498	-0.027762	2.593803
104.977231	1880.046429	1.566502	-0.027790	2.597181
105.194507	1886.093068	1.571507	-0.027832	2.600609
105.323221	1892.091993	1.576512	-0.027858	2.603990
105.606607	1898.099702	1.581517	-0.027912	2.607399
105.890462	1904.087357	1.586522	-0.027967	2.610792
106.090729	1910.139223	1.591526	-0.028006	2.614202
106.417131	1916.075551	1.596531	-0.028069	2.617565
106.775260	1922.122887	1.601536	-0.028138	2.620991
107.191144	1928.128888	1.606541	-0.028217	2.624400
107.573172	1934.120212	1.611546	-0.028290	2.627791
107.953513	1940.149412	1.616550	-0.028363	2.631197
108.185839	1946.198227	1.621555	-0.028408	2.634584
108.371296	1952.154751	1.626560	-0.028444	2.637908
108.547619	1958.197100	1.631565	-0.028479	2.641273
108.776819	1964.181552	1.636570	-0.028524	2.644611
108.957164	1970.219798	1.641574	-0.028559	2.647966
109.262612	1976.195962	1.646579	-0.028618	2.651304
109.559529	1982.243735	1.651584	-0.028675	2.654676
109.679175	1988.219114	1.656589	-0.028699	2.657973
110.034349	1994.229916	1.661594	-0.028767	2.661326
110.225217	2000.253448	1.666598	-0.028804	2.664653
110.448659	2006.237222	1.671603	-0.028848	2.667960
110.728984	2012.259933	1.676608	-0.028902	2.671294
111.014186	2018.280808	1.681613	-0.028957	2.674624
111.094363	2024.289425	1.686618	-0.028973	2.677908
111.381543	2030.289320	1.691622	-0.029029	2.681218
111.491525	2036.308717	1.696627	-0.029051	2.684505
111.829243	2042.308488	1.701632	-0.029116	2.687815
111.890038	2048.328310	1.706637	-0.029129	2.691085
112.219556	2054.336546	1.711642	-0.029192	2.694391
112.308061	2060.319170	1.716646	-0.029210	2.697638
112.653463	2066.327640	1.721651	-0.029276	2.700938
112.857072	2072.378216	1.726656	-0.029316	2.704233
113.002722	2078.358677	1.731661	-0.029345	2.707477
113.280673	2084.358515	1.736666	-0.029398	2.710749
113.568678	2090.402217	1.741670	-0.029454	2.714042
113.711869	2096.364707	1.746675	-0.029482	2.717264
113.862924	2102.425811	1.751680	-0.029512	2.720536
114.068726	2108.400164	1.756685	-0.029552	2.723766
114.238860	2114.414503	1.761690	-0.029586	2.727008
114.622266	2120.406529	1.766694	-0.029659	2.730270
114.839338	2126.440214	1.771699	-0.029701	2.733523
115.010660	2132.430355	1.776704	-0.029735	2.736741
115.341487	2138.441472	1.781709	-0.029798	2.739992
115.393266	2144.467345	1.786714	-0.029810	2.743202
115.774060	2150.468698	1.791718	-0.029883	2.746449
115.922079	2156.456003	1.796723	-0.029912	2.749646
116.090063	2162.513227	1.801728	-0.029945	2.752880
116.103425	2168.484459	1.806733	-0.029949	2.756039
116.434098	2174.514377	1.811738	-0.030012	2.759277
116.599028	2180.492242	1.816742	-0.030045	2.762457
116.788404	2186.532380	1.821747	-0.030082	2.765670
116.878323	2192.536866	1.826752	-0.030100	2.768845
117.247720	2198.525976	1.831757	-0.030171	2.772053
117.251215	2204.547422	1.836762	-0.030173	2.775215
117.568740	2210.571555	1.841766	-0.030234	2.778426
117.680523	2216.546591	1.846771	-0.030257	2.781574
117.998599	2222.557286	1.851776	-0.030318	2.784770
118.170341	2228.583820	1.856781	-0.030352	2.787947
118.566339	2234.578064	1.861786	-0.030427	2.791140
118.570491	2240.603836	1.866790	-0.030430	2.794283
118.743823	2246.617830	1.871795	-0.030464	2.797443
118.830356	2252.597632	1.876800	-0.030481	2.800567
119.255751	2258.625895	1.881805	-0.030563	2.803768
119.284466	2264.635375	1.886810	-0.030570	2.806892
119.712087	2270.631883	1.891814	-0.030651	2.810069
119.834153	2276.665472	1.896819	-0.030676	2.813213
119.948645	2282.665347	1.901824	-0.030699	2.816335
120.105898	2288.649149	1.906829	-0.030730	2.819452
120.348504	2294.689728	1.911834	-0.030777	2.822609
120.563384	2300.640922	1.916838	-0.030818	2.825711
120.999138	2306.689978	1.921843	-0.030902	2.828895
120.935304	2312.717700	1.926848	-0.030891	2.831986
121.189183	2318.696583	1.931853	-0.030940	2.835098
121.610328	2324.695497	1.936858	-0.031021	2.838244
121.992510	2330.727890	1.941862	-0.031094	2.841397
122.186415	2336.705277	1.946867	-0.031132	2.844488
122.581166	2342.748793	1.951872	-0.031208	2.847642
122.570562	2348.756240	1.956877	-0.031207	2.850710
122.884350	2354.746361	1.961882	-0.031267	2.853817
122.969009	2360.756786	1.966886	-0.031285	2.856895
123.357705	2366.768698	1.971891	-0.031359	2.860018
123.501918	2372.793828	1.976896	-0.031388	2.863106
123.779434	2378.768341	1.981901	-0.031441	2.866185
123.760639	2384.817556	1.986906	-0.031439	2.869253
124.106832	2390.807707	1.991910	-0.031506	2.872345
