Fri Jan 13 17:27:19 2023

Number of Points = 3000
Depth (nm)	Load (µN)	Time (s)	Depth (V)	Load (V)
0.000000	2.008452	0.000000	-0.009363	1.081969
2.803777	4.528294	0.005005	-0.009890	1.086754
6.963150	8.745565	0.010010	-0.010671	1.094452
11.401760	14.378485	0.015014	-0.011505	1.104105
14.457865	20.653736	0.020019	-0.012080	1.113848
15.960713	27.069710	0.025024	-0.012364	1.122945
17.139891	33.252347	0.030029	-0.012587	1.131514
18.155819	39.345873	0.035034	-0.012779	1.139827
19.300655	45.370584	0.040038	-0.012995	1.148052
20.021517	51.492083	0.045043	-0.013132	1.156144
20.825282	57.546234	0.050048	-0.013284	1.164133
21.618701	63.574474	0.055053	-0.013435	1.172030
22.284920	69.653833	0.060058	-0.013561	1.179879
22.819484	75.702177	0.065062	-0.013663	1.187579
23.398050	81.744276	0.070067	-0.013773	1.195242
23.824664	87.794795	0.075072	-0.013855	1.202798
24.437172	93.820391	0.080077	-0.013971	1.210358
24.983065	99.843869	0.085082	-0.014075	1.217840
25.436530	105.907290	0.090086	-0.014162	1.225283
25.798000	111.953832	0.095091	-0.014231	1.232621
26.343060	117.963458	0.100096	-0.014335	1.239951
26.672963	124.004698	0.105101	-0.014398	1.247183
27.278024	130.014909	0.110106	-0.014513	1.254454
27.707635	136.064389	0.115110	-0.014595	1.261654
28.072590	142.115150	0.120115	-0.014665	1.268787
28.402441	148.136928	0.125120	-0.014728	1.275833
28.851049	154.167487	0.130125	-0.014814	1.282899
29.175407	160.194851	0.135130	-0.014877	1.289871
29.912184	166.169805	0.140134	-0.015016	1.296916
30.132749	172.319735	0.145139	-0.015059	1.303907
30.452137	178.306009	0.150144	-0.015121	1.310720
30.907254	184.284877	0.155149	-0.015207	1.317543
31.486630	190.304432	0.160154	-0.015318	1.324426
31.841146	196.351262	0.165158	-0.015386	1.331213
32.262530	202.380110	0.170163	-0.015466	1.337973
32.497092	208.423663	0.175168	-0.015512	1.344641
32.990947	214.425947	0.180173	-0.015606	1.351333
33.137352	220.484030	0.185178	-0.015635	1.357916
33.592199	226.495611	0.190182	-0.015722	1.364537
34.038166	232.478559	0.195187	-0.015807	1.371093
34.507427	238.540295	0.200192	-0.015896	1.377709
34.751341	244.583389	0.205197	-0.015944	1.384188
35.159134	250.584177	0.210202	-0.016022	1.390654
35.619243	256.572581	0.215206	-0.016110	1.397097
36.260803	262.588606	0.220211	-0.016231	1.403608
36.482813	268.667565	0.225216	-0.016275	1.409996
36.936209	274.665453	0.230221	-0.016361	1.416358
37.251231	280.690312	0.235226	-0.016422	1.422668
37.741791	286.716415	0.240230	-0.016515	1.429016
37.992859	292.746823	0.245235	-0.016564	1.435252
38.272674	298.791299	0.250240	-0.016618	1.441486
38.560647	304.795598	0.255245	-0.016673	1.447655
38.971111	310.816053	0.260250	-0.016752	1.453859
39.244609	316.840755	0.265254	-0.016805	1.459991
39.588721	322.866397	0.270259	-0.016871	1.466124
39.844744	328.875720	0.275264	-0.016920	1.472183
40.331808	334.886433	0.280269	-0.017013	1.478301
40.603908	340.926945	0.285274	-0.017066	1.484346
40.930507	346.935245	0.290278	-0.017128	1.490355
41.179781	352.971169	0.295283	-0.017177	1.496340
41.496502	358.994032	0.300288	-0.017238	1.502311
41.846300	365.000372	0.305293	-0.017305	1.508254
42.123477	371.035026	0.310298	-0.017358	1.514176
42.432321	377.037739	0.315302	-0.017418	1.520055
42.971189	383.010796	0.320307	-0.017520	1.525961
43.448268	389.063656	0.325312	-0.017611	1.531900
43.825945	395.087382	0.330317	-0.017684	1.537754
44.200263	401.114619	0.335322	-0.017755	1.543588
44.665312	407.122608	0.340326	-0.017844	1.549412
44.853514	413.161363	0.345331	-0.017881	1.555150
45.215478	419.178253	0.350336	-0.017950	1.560905
45.482111	425.184930	0.355341	-0.018002	1.566597
45.873780	431.219108	0.360346	-0.018077	1.572336
46.127022	437.241589	0.365350	-0.018126	1.577997
46.532944	443.251371	0.370355	-0.018204	1.583676
46.765178	449.276218	0.375360	-0.018249	1.589292
47.087397	455.284919	0.380365	-0.018311	1.594903
47.458792	461.291468	0.385370	-0.018382	1.600508
47.860150	467.307126	0.390374	-0.018459	1.606111
48.201821	473.335823	0.395379	-0.018524	1.611687
48.574840	479.362519	0.400384	-0.018596	1.617252
48.807655	485.385702	0.405389	-0.018641	1.622749
49.265762	491.383666	0.410394	-0.018728	1.628278
49.531248	497.402385	0.415398	-0.018780	1.633745
50.065029	503.398955	0.420403	-0.018881	1.639258
50.192667	509.455126	0.425408	-0.018907	1.644678
50.443367	515.478680	0.430413	-0.018955	1.650090
50.862559	521.460403	0.435418	-0.019035	1.655500
51.249056	527.493460	0.440422	-0.019109	1.660927
51.453565	533.522087	0.445427	-0.019149	1.666277
51.748024	539.521400	0.450432	-0.019206	1.671611
52.052364	545.559259	0.455437	-0.019265	1.676964
52.278346	551.588212	0.460442	-0.019308	1.682269
52.465339	557.592693	0.465446	-0.019345	1.687524
52.776363	563.598820	0.470451	-0.019405	1.692802
53.173014	569.600648	0.475456	-0.019481	1.698085
53.397972	575.637476	0.480461	-0.019524	1.703330
53.711045	581.642601	0.485466	-0.019585	1.708559
54.045340	587.660559	0.490470	-0.019649	1.713788
54.509791	593.648761	0.495475	-0.019738	1.719016
54.885697	599.674671	0.500480	-0.019810	1.724233
54.930170	605.759587	0.505485	-0.019819	1.729385
55.359739	611.688980	0.510490	-0.019902	1.734505
55.428720	617.775037	0.515494	-0.019916	1.739635
55.831918	623.735905	0.520499	-0.019993	1.744744
55.839379	629.810210	0.525504	-0.019996	1.749816
56.282376	635.764035	0.530509	-0.020081	1.754901
56.435444	641.811702	0.535514	-0.020111	1.759964
56.676560	647.817955	0.540518	-0.020158	1.765004
57.012087	653.828865	0.545523	-0.020222	1.770060
57.340552	659.846593	0.550528	-0.020285	1.775106
57.489797	665.880283	0.555533	-0.020315	1.780099
57.880716	671.852777	0.560538	-0.020389	1.785097
58.095961	677.892342	0.565542	-0.020431	1.790085
58.497734	683.888768	0.570547	-0.020508	1.795078
58.916821	689.866305	0.575552	-0.020588	1.800046
59.371087	695.933240	0.580557	-0.020675	1.805082
59.431982	701.965683	0.585562	-0.020688	1.809966
59.761408	707.955099	0.590566	-0.020751	1.814878
59.996978	713.978544	0.595571	-0.020797	1.819777
60.238154	719.999187	0.600576	-0.020844	1.824662
60.442441	725.994305	0.605581	-0.020884	1.829504
60.902009	731.998651	0.610586	-0.020971	1.834411
61.054239	738.045439	0.615590	-0.021001	1.839253
61.400817	744.039679	0.620595	-0.021068	1.844095
61.511303	750.071143	0.625600	-0.021090	1.848888
61.938673	756.060718	0.630605	-0.021172	1.853723
62.070669	762.104740	0.635610	-0.021198	1.858507
62.395986	768.085123	0.640614	-0.021261	1.863282
62.536770	774.137775	0.645619	-0.021288	1.868050
62.783611	780.120713	0.650624	-0.021336	1.872781
63.196279	786.121007	0.655629	-0.021415	1.877558
63.516122	792.142297	0.660634	-0.021477	1.882315
63.638274	798.188787	0.665638	-0.021501	1.887025
63.824946	804.189688	0.670643	-0.021538	1.891706
64.134604	810.187221	0.675648	-0.021597	1.896406
64.476835	816.195029	0.680653	-0.021663	1.901110
64.521787	822.252293	0.685658	-0.021673	1.905762
64.804342	828.209874	0.690662	-0.021727	1.910389
65.075578	834.244786	0.695667	-0.021780	1.915061
65.443473	840.249624	0.700672	-0.021850	1.919724
65.645547	846.271789	0.705677	-0.021890	1.924345
66.079788	852.255736	0.710682	-0.021973	1.928987
66.326647	858.303357	0.715686	-0.022020	1.933616
66.821495	864.301767	0.720691	-0.022115	1.938262
66.861815	870.342536	0.725696	-0.022124	1.942811
67.121455	876.329405	0.730701	-0.022174	1.947366
67.265456	882.357481	0.735706	-0.022203	1.951911
67.547242	888.356712	0.740710	-0.022257	1.956459
67.640787	894.390732	0.745715	-0.022276	1.960974
67.911879	900.387349	0.750720	-0.022328	1.965496
67.997760	906.408003	0.755725	-0.022346	1.969979
68.379161	912.392240	0.760730	-0.022419	1.974500
68.518788	918.445099	0.765734	-0.022447	1.978999
68.913905	924.398436	0.770739	-0.022522	1.983480
69.140444	930.458673	0.775744	-0.022566	1.987986
69.560434	936.425779	0.780749	-0.022647	1.992462
69.948883	942.467839	0.785754	-0.022721	1.996975
70.068676	948.499091	0.790758	-0.022745	2.001403
70.252952	954.503480	0.795763	-0.022781	2.005818
70.680310	960.473125	0.800768	-0.022863	2.010258
70.797760	966.546786	0.805773	-0.022886	2.014687
71.114629	972.526135	0.810778	-0.022947	2.019087
71.367460	978.540989	0.815782	-0.022996	2.023487
71.529274	984.565148	0.820787	-0.023028	2.027862
71.645745	990.592308	0.825792	-0.023051	2.032219
71.901515	996.586475	0.830797	-0.023101	2.036577
72.080216	1002.569579	0.835802	-0.023136	2.040898
72.464182	1008.590784	0.840806	-0.023209	2.045288
72.686902	1014.619093	0.845811	-0.023253	2.049634
73.071157	1020.618121	0.850816	-0.023326	2.053989
73.343325	1026.645998	0.855821	-0.023379	2.058328
73.525966	1032.648457	0.860826	-0.023414	2.062618
73.824583	1038.668392	0.865830	-0.023472	2.066940
73.944559	1044.679956	0.870835	-0.023496	2.071204
74.048950	1050.700443	0.875840	-0.023517	2.075462
74.162870	1056.711010	0.880845	-0.023540	2.079706
74.308127	1062.732698	0.885850	-0.023569	2.083957
74.720750	1068.688549	0.890854	-0.023648	2.088216
74.751212	1074.772148	0.895859	-0.023655	2.092465
75.011798	1080.741115	0.900864	-0.023705	2.096681
75.219497	1086.746144	0.905869	-0.023746	2.100900
75.513173	1092.757984	0.910874	-0.023802	2.105136
75.706766	1098.784966	0.915878	-0.023840	2.109350
75.948488	1104.765569	0.920883	-0.023887	2.113535
76.279053	1110.798278	0.925888	-0.023950	2.117768
76.526507	1116.819014	0.930893	-0.023998	2.121966
76.677491	1122.835131	0.935898	-0.024028	2.126129
76.946864	1128.804008	0.940902	-0.024080	2.130279
77.177146	1134.855378	0.945907	-0.024125	2.134469
77.274241	1140.859169	0.950912	-0.024145	2.138587
77.405659	1146.887368	0.955917	-0.024171	2.142721
77.633622	1152.892929	0.960922	-0.024215	2.146855
77.914014	1158.864963	0.965926	-0.024269	2.150969
77.976849	1164.925036	0.970931	-0.024282	2.155086
78.170878	1170.916253	0.975936	-0.024320	2.159178
78.484376	1176.899877	0.980941	-0.024381	2.163285
78.693119	1182.941112	0.985946	-0.024421	2.167398
78.919190	1188.961915	0.990950	-0.024465	2.171494
79.089129	1194.956324	0.995955	-0.024498	2.175552
79.235836	1200.972930	1.000960	-0.024528	2.179612
79.556441	1206.958146	1.005965	-0.024589	2.183682
79.798200	1212.980373	1.010970	-0.024636	2.187752
79.896721	1219.036529	1.015974	-0.024656	2.191804
80.191997	1225.007410	1.020979	-0.024713	2.195837
80.294856	1231.017069	1.025984	-0.024734	2.199845
80.438174	1237.040750	1.030989	-0.024762	2.203863
80.626074	1243.047147	1.035994	-0.024799	2.207873
80.923732	1249.055847	1.040998	-0.024856	2.211902
81.189441	1255.063450	1.046003	-0.024907	2.215915
81.372500	1261.064184	1.051008	-0.024943	2.219898
81.503014	1267.087955	1.056013	-0.024969	2.223878
81.788050	1273.087227	1.061018	-0.025024	2.227868
82.018280	1279.108652	1.066022	-0.025069	2.231853
82.324555	1285.117822	1.071027	-0.025128	2.235840
82.324614	1291.151893	1.076032	-0.025129	2.239770
82.514791	1297.137237	1.081037	-0.025167	2.243702
82.817418	1303.123213	1.086042	-0.025225	2.247652
83.076962	1309.162328	1.091046	-0.025275	2.251620
83.565216	1315.153559	1.096051	-0.025368	2.255599
83.731845	1321.173811	1.101056	-0.025401	2.259521
83.963879	1327.197702	1.106061	-0.025446	2.263453
84.177178	1333.194788	1.111066	-0.025487	2.267356
84.443156	1339.195107	1.116070	-0.025539	2.271266
84.710669	1345.214025	1.121075	-0.025591	2.275181
84.949218	1351.235837	1.126080	-0.025637	2.279085
85.079803	1357.235057	1.131085	-0.025663	2.282945
85.302975	1363.256702	1.136090	-0.025706	2.286833
85.308298	1369.291587	1.141094	-0.025709	2.290676
85.563895	1375.267915	1.146099	-0.025758	2.294529
85.727388	1381.281087	1.151104	-0.025790	2.298379
85.996938	1387.273313	1.156109	-0.025842	2.302231
86.407336	1393.290217	1.161114	-0.025921	2.306122
86.575214	1399.309034	1.166118	-0.025954	2.309957
87.074590	1405.284412	1.171123	-0.026049	2.313827
87.515816	1411.294666	1.176128	-0.026133	2.317701
87.956814	1417.319169	1.181133	-0.026217	2.321576
88.245490	1423.367048	1.186138	-0.026273	2.325429
88.617287	1429.330403	1.191142	-0.026344	2.329239
88.763711	1435.374430	1.196147	-0.026373	2.333047
88.976464	1441.391069	1.201152	-0.026415	2.336845
89.240764	1447.382639	1.206157	-0.026466	2.340632
89.712066	1453.365446	1.211162	-0.026556	2.344450
89.952931	1459.414392	1.216166	-0.026602	2.348255
90.069751	1465.433787	1.221171	-0.026626	2.352011
90.423790	1471.437386	1.226176	-0.026694	2.355799
90.430394	1477.447097	1.231181	-0.026697	2.359514
90.702210	1483.446501	1.236186	-0.026749	2.363271
90.828779	1489.465339	1.241190	-0.026774	2.367004
91.192111	1495.470177	1.246195	-0.026844	2.370771
91.410046	1501.479908	1.251200	-0.026886	2.374505
91.411199	1507.522973	1.256205	-0.026888	2.378210
91.504491	1513.492947	1.261210	-0.026907	2.381883
91.896201	1519.496379	1.266214	-0.026982	2.385631
92.208592	1525.500734	1.271219	-0.027042	2.389357
92.414265	1531.543751	1.276224	-0.027082	2.393080
92.607119	1537.528894	1.281229	-0.027120	2.396760
92.637729	1543.580039	1.286234	-0.027127	2.400441
92.901821	1549.551320	1.291238	-0.027178	2.404115
93.036434	1555.581983	1.296243	-0.027205	2.407793
93.177692	1561.581052	1.301248	-0.027233	2.411448
93.578516	1567.602718	1.306253	-0.027310	2.415162
93.751364	1573.569417	1.311258	-0.027343	2.418792
93.905030	1579.621817	1.316262	-0.027374	2.422465
93.946582	1585.625431	1.321267	-0.027383	2.426081
94.474991	1591.605495	1.326272	-0.027484	2.429773
94.580836	1597.636935	1.331277	-0.027505	2.433407
94.849189	1603.650460	1.336282	-0.027557	2.437056
94.852519	1609.668386	1.341286	-0.027559	2.440652
95.128244	1615.650655	1.346291	-0.027612	2.444273
95.461485	1621.654547	1.351296	-0.027676	2.447913
95.741202	1627.694482	1.356301	-0.027730	2.451559
95.924204	1633.699252	1.361306	-0.027766	2.455160
96.165800	1639.697138	1.366310	-0.027813	2.458762
96.214544	1645.717989	1.371315	-0.027823	2.462336
96.482939	1651.728503	1.376320	-0.027875	2.465941
96.557089	1657.724672	1.381325	-0.027891	2.469495
97.109250	1663.711004	1.386330	-0.027996	2.473129
97.218454	1669.768963	1.391334	-0.028018	2.476715
97.340345	1675.786502	1.396339	-0.028042	2.480275
97.537335	1681.760824	1.401344	-0.028081	2.483819
97.894882	1687.755929	1.406349	-0.028149	2.487400
98.078295	1693.794034	1.411354	-0.028185	2.490968
98.358537	1699.810757	1.416358	-0.028239	2.494537
98.420795	1705.795274	1.421363	-0.028252	2.498040
98.663494	1711.813967	1.426368	-0.028299	2.501593
99.098273	1717.814401	1.431373	-0.028382	2.505166
99.279242	1723.822965	1.436378	-0.028418	2.508691
99.384657	1729.845331	1.441382	-0.028439	2.512205
99.666921	1735.866480	1.446387	-0.028494	2.515746
99.789825	1741.856064	1.451392	-0.028518	2.519235
100.105111	1747.872764	1.456397	-0.028579	2.522770
100.096625	1753.890908	1.461402	-0.028579	2.526240
100.387103	1759.893421	1.466406	-0.028635	2.529753
100.515664	1765.910050	1.471411	-0.028660	2.533238
100.713867	1771.900213	1.476416	-0.028699	2.536717
100.831259	1777.929020	1.481421	-0.028723	2.540197
101.246066	1783.913929	1.486426	-0.028802	2.543703
101.453831	1789.928152	1.491430	-0.028842	2.547182
101.577219	1795.964105	1.496435	-0.028867	2.550654
101.749002	1801.959491	1.501440	-0.028901	2.554107
101.997906	1807.964762	1.506445	-0.028949	2.557574
102.033264	1813.954424	1.511450	-0.028957	2.560990
102.315402	1820.021662	1.516454	-0.029011	2.564489
102.512180	1825.988429	1.521459	-0.029050	2.567911
102.806816	1831.981944	1.526464	-0.029107	2.571362
103.073218	1838.045450	1.531469	-0.029158	2.574842
103.344617	1844.035628	1.536474	-0.029210	2.578277
103.390705	1850.039685	1.541478	-0.029221	2.581674
103.768194	1856.033655	1.546483	-0.029293	2.585122
103.971174	1862.038486	1.551488	-0.029333	2.588539
104.077987	1868.065897	1.556493	-0.029354	2.591947
104.318707	1874.048430	1.561498	-0.029401	2.595349
104.791166	1880.050542	1.566502	-0.029491	2.598799
104.802767	1886.095039	1.571507	-0.029494	2.602187
105.016430	1892.082399	1.576512	-0.029536	2.605573
105.138970	1898.120618	1.581517	-0.029561	2.608968
105.233291	1904.108824	1.586522	-0.029580	2.612325
105.431520	1910.108855	1.591526	-0.029618	2.615703
105.696602	1916.138264	1.596531	-0.029670	2.619105
105.875033	1922.119957	1.601536	-0.029705	2.622460
106.176848	1928.130599	1.606541	-0.029763	2.625849
106.201150	1934.173935	1.611546	-0.029769	2.629202
106.489738	1940.170461	1.616550	-0.029824	2.632572
106.552088	1946.173802	1.621555	-0.029838	2.635902
106.717283	1952.197540	1.626560	-0.029870	2.639257
106.945752	1958.173950	1.631565	-0.029914	2.642592
107.150527	1964.198740	1.636570	-0.029954	2.645946
107.301712	1970.220117	1.641574	-0.029984	2.649284
107.574736	1976.210201	1.646579	-0.030037	2.652622
107.635101	1982.240615	1.651584	-0.030050	2.655941
107.867864	1988.233419	1.656589	-0.030095	2.659265
107.955212	1994.245431	1.661594	-0.030113	2.662570
108.239303	2000.231625	1.666598	-0.030168	2.665891
108.436610	2006.271101	1.671603	-0.030206	2.669222
108.714139	2012.264961	1.676608	-0.030260	2.672538
108.825722	2018.273294	1.681613	-0.030282	2.675828
109.165147	2024.299097	1.686618	-0.030347	2.679164
109.406873	2030.267281	1.691622	-0.030394	2.682447
109.697342	2036.306538	1.696627	-0.030450	2.685773
109.824127	2042.319498	1.701632	-0.030475	2.689052
110.105252	2048.316904	1.706637	-0.030530	2.692346
110.406774	2054.302746	1.711642	-0.030588	2.695632
110.670181	2060.350284	1.716646	-0.030639	2.698942
110.730112	2066.345131	1.721651	-0.030651	2.702184
110.976456	2072.349810	1.726656	-0.030699	2.705459
111.231222	2078.365694	1.731661	-0.030748	2.708738
111.502346	2084.376956	1.736666	-0.030801	2.712013
111.551311	2090.377737	1.741670	-0.030811	2.715241
111.645103	2096.432317	1.746675	-0.030830	2.718502
111.818077	2102.381988	1.751680	-0.030864	2.721716
112.057627	2108.413282	1.756685	-0.030911	2.724980
112.245513	2114.421282	1.761690	-0.030948	2.728220
112.603378	2120.440992	1.766694	-0.031016	2.731490
112.586465	2126.432997	1.771699	-0.031015	2.734680
112.814626	2132.436136	1.776704	-0.031059	2.737912
112.898034	2138.459816	1.781709	-0.031076	2.741127
113.171857	2144.454373	1.786714	-0.031129	2.744355
113.400519	2150.462550	1.791718	-0.031173	2.747578
113.615671	2156.483904	1.796723	-0.031215	2.750803
113.648278	2162.508314	1.801728	-0.031223	2.753995
113.865216	2168.486682	1.806733	-0.031265	2.757189
113.949740	2174.500763	1.811738	-0.031282	2.760377
114.099560	2180.552577	1.816742	-0.031312	2.763592
114.181894	2186.502521	1.821747	-0.031329	2.766738
114.473768	2192.530425	1.826752	-0.031385	2.769956
114.545132	2198.569558	1.831757	-0.031400	2.773140
114.863473	2204.526785	1.836762	-0.031461	2.776318
114.876928	2210.545971	1.841766	-0.031465	2.779475
115.245531	2216.565499	1.846771	-0.031536	2.782686
115.373688	2222.562541	1.851776	-0.031561	2.785843
115.630013	2228.598677	1.856781	-0.031611	2.789037
115.746175	2234.594737	1.861786	-0.031634	2.792184
115.960449	2240.591362	1.866790	-0.031676	2.795343
116.148631	2246.610757	1.871795	-0.031713	2.798507
116.535355	2252.610178	1.876800	-0.031787	2.801688
116.308545	2258.637153	1.881805	-0.031746	2.804782
116.740353	2264.632353	1.886810	-0.031828	2.807961
116.880807	2270.639846	1.891814	-0.031856	2.811096
117.065712	2276.660391	1.896819	-0.031892	2.814242
117.195371	2282.652810	1.901824	-0.031918	2.817361
117.317340	2288.680323	1.906829	-0.031942	2.820493
117.478437	2294.666883	1.911834	-0.031974	2.823607
117.684072	2300.689535	1.916838	-0.032014	2.826743
117.850871	2306.679940	1.921843	-0.032047	2.829853
118.157693	2312.707650	1.926848	-0.032106	2.833001
118.228445	2318.697790	1.931853	-0.032121	2.836088
118.605254	2324.704935	1.936858	-0.032193	2.839229
118.750942	2330.745194	1.941862	-0.032222	2.842348
118.856828	2336.736007	1.946867	-0.032243	2.845431
119.014912	2342.740037	1.951872	-0.032274	2.848526
119.451109	2348.748917	1.956877	-0.032358	2.851663
119.593242	2354.735096	1.961882	-0.032386	2.854740
119.733999	2360.798112	1.966886	-0.032414	2.857852
119.855810	2366.768689	1.971891	-0.032438	2.860910
120.191619	2372.776934	1.976896	-0.032503	2.864018
120.278166	2378.814984	1.981901	-0.032520	2.867099
120.591633	2384.791718	1.986906	-0.032581	2.870180
120.796804	2390.811734	1.991910	-0.032621	2.873263
