Fri Jan 13 17:27:19 2023

Number of Points = 3000
Depth (nm)	Load (µN)	Time (s)	Depth (V)	Load (V)
-2.348453	1.358729	0.000000	0.026326	0.981319
0.000000	4.253902	0.005005	0.025885	0.986935
2.105618	8.799980	0.010010	0.025489	0.994823
4.147798	14.482991	0.015014	0.025104	1.004278
5.856075	20.516235	0.020019	0.024782	1.013971
7.374023	26.620381	0.025024	0.024496	1.023573
8.443836	32.778998	0.030029	0.024294	1.032926
9.353815	38.909963	0.035034	0.024121	1.042074
9.891029	45.034089	0.040038	0.024019	1.050939
10.715073	51.067407	0.045043	0.023863	1.059751
11.038402	57.195132	0.050048	0.023801	1.068366
11.656938	63.208473	0.055053	0.023683	1.076904
12.083239	69.298769	0.060058	0.023602	1.085383
12.571954	75.314914	0.065062	0.023508	1.093728
12.819943	81.412955	0.070067	0.023460	1.102000
13.174261	87.451501	0.075072	0.023392	1.110184
13.552424	93.466656	0.080077	0.023320	1.118288
14.039160	99.495292	0.085082	0.023227	1.126404
14.216801	105.593007	0.090086	0.023192	1.134403
14.670700	111.603205	0.095091	0.023106	1.142365
14.714302	117.688876	0.100096	0.023096	1.150175
15.139728	123.673668	0.105101	0.023015	1.157982
15.494925	129.706682	0.110106	0.022947	1.165765
15.814818	135.759086	0.115110	0.022885	1.173504
16.223942	141.765614	0.120115	0.022807	1.181177
16.546723	147.825561	0.125120	0.022745	1.188826
16.803978	153.866177	0.130125	0.022695	1.196373
17.320622	159.866451	0.135130	0.022596	1.203940
17.597243	165.927930	0.140134	0.022543	1.211426
18.182731	171.915789	0.145139	0.022432	1.218914
18.366176	178.018169	0.150144	0.022396	1.226317
18.568937	184.051937	0.155149	0.022356	1.233603
18.902826	190.057557	0.160154	0.022292	1.240869
19.282616	196.080458	0.165158	0.022219	1.248132
19.628859	202.101463	0.170163	0.022153	1.255337
19.893183	208.163597	0.175168	0.022102	1.262513
20.110689	214.193762	0.180173	0.022060	1.269593
20.459426	220.205923	0.185178	0.021993	1.276667
20.777246	226.233592	0.190182	0.021931	1.283707
21.195350	232.261454	0.195187	0.021852	1.290750
21.571398	238.263244	0.200192	0.021779	1.297708
21.830106	244.394991	0.205197	0.021729	1.304727
22.021381	250.385058	0.210202	0.021692	1.311522
22.226756	256.397614	0.215206	0.021652	1.318313
22.603571	262.380171	0.220211	0.021580	1.325105
23.063656	268.401904	0.225216	0.021492	1.331939
23.267830	274.458046	0.230221	0.021452	1.338673
23.690214	280.462928	0.235226	0.021371	1.345404
23.929931	286.505509	0.240230	0.021325	1.352071
24.376479	292.511448	0.245235	0.021240	1.358746
24.610098	298.555166	0.250240	0.021194	1.365345
24.887514	304.595568	0.255245	0.021141	1.371927
25.064032	310.618060	0.260250	0.021106	1.378419
25.432031	316.632779	0.265254	0.021036	1.384946
25.676726	322.646181	0.270259	0.020988	1.391393
26.147229	328.652787	0.275264	0.020898	1.397890
26.333411	334.710503	0.280269	0.020862	1.404302
26.716194	340.711640	0.285274	0.020789	1.410700
26.874907	346.771184	0.290278	0.020757	1.417045
27.310996	352.743596	0.295283	0.020674	1.423376
27.452829	358.809141	0.300288	0.020646	1.429665
27.729857	364.818113	0.305293	0.020593	1.435918
27.978979	370.835808	0.310298	0.020544	1.442143
28.248123	376.880347	0.315302	0.020492	1.448376
28.407537	382.900716	0.320307	0.020461	1.454518
28.909857	388.881119	0.325312	0.020365	1.460717
28.938294	394.943307	0.330317	0.020358	1.466802
29.195017	400.963553	0.335322	0.020309	1.472901
29.274565	406.996271	0.340326	0.020292	1.478924
29.577733	412.986058	0.345331	0.020234	1.484960
29.887658	418.987407	0.350336	0.020174	1.490985
30.241099	425.020616	0.355341	0.020106	1.497032
30.407390	431.070833	0.360346	0.020074	1.503006
30.789399	437.057476	0.365350	0.020001	1.508969
31.113109	443.058594	0.370355	0.019938	1.514903
31.454998	449.109040	0.375360	0.019873	1.520867
31.478007	455.158140	0.380365	0.019867	1.526697
31.817362	461.148171	0.385370	0.019802	1.532557
32.122418	467.170724	0.390374	0.019743	1.538413
32.330908	473.191635	0.395379	0.019702	1.544213
32.549113	479.209311	0.400384	0.019660	1.549991
32.996701	485.194851	0.405389	0.019574	1.555795
33.158443	491.264382	0.410394	0.019543	1.561560
33.319766	497.286877	0.415398	0.019511	1.567259
33.512988	503.283861	0.420403	0.019473	1.572925
33.861994	509.294617	0.425408	0.019406	1.578635
34.076253	515.322469	0.430413	0.019364	1.584295
34.307280	521.350864	0.435418	0.019320	1.589941
34.459875	527.367699	0.440422	0.019290	1.595531
34.868895	533.354985	0.445427	0.019211	1.601158
34.778181	539.445896	0.450432	0.019227	1.606697
35.252655	545.398696	0.455437	0.019136	1.612274
35.352957	551.439433	0.460442	0.019116	1.617792
35.601238	557.473772	0.465446	0.019068	1.623332
35.777706	563.465512	0.470451	0.019033	1.628792
36.180580	569.475185	0.475456	0.018956	1.634321
36.328383	575.498797	0.480461	0.018927	1.639764
36.748220	581.488708	0.485466	0.018847	1.645245
37.043396	587.516034	0.490470	0.018790	1.650701
37.362811	593.546529	0.495475	0.018728	1.656149
37.445410	599.576738	0.500480	0.018711	1.661506
37.733477	605.584123	0.505485	0.018656	1.666888
38.128092	611.567775	0.510490	0.018580	1.672266
38.312968	617.639773	0.515494	0.018544	1.677639
38.441742	623.632930	0.520499	0.018519	1.682909
38.789161	629.649197	0.525504	0.018452	1.688249
38.935774	635.658619	0.530509	0.018423	1.693505
39.329378	641.684344	0.535514	0.018347	1.698834
39.344079	647.724170	0.540518	0.018343	1.704044
39.736223	653.703924	0.545523	0.018268	1.709300
39.948054	659.700348	0.550528	0.018227	1.714500
40.343948	665.734252	0.555533	0.018151	1.719771
40.446972	671.766470	0.560538	0.018130	1.724937
40.988981	677.733414	0.565542	0.018027	1.730163
41.214239	683.774693	0.570547	0.017983	1.735342
41.593122	689.800667	0.575552	0.017911	1.740538
41.574954	695.846923	0.580557	0.017913	1.745619
41.910307	701.822096	0.585562	0.017848	1.750729
42.074260	707.865325	0.590566	0.017816	1.755830
42.407938	713.853810	0.595571	0.017752	1.760921
42.654034	719.869020	0.600576	0.017704	1.765994
42.966578	725.905322	0.605581	0.017644	1.771089
43.106571	731.917080	0.610586	0.017616	1.776099
43.368913	737.924920	0.615590	0.017566	1.781127
43.522478	743.935720	0.620595	0.017535	1.786112
43.742050	749.965574	0.625600	0.017493	1.791117
43.926072	755.961354	0.630605	0.017457	1.796071
44.237725	761.987757	0.635610	0.017397	1.801072
44.309692	767.993247	0.640614	0.017382	1.805974
44.675958	773.995360	0.645619	0.017312	1.810944
44.761941	780.051873	0.650624	0.017294	1.815864
45.159064	786.021673	0.655629	0.017218	1.820789
45.144142	792.080673	0.660634	0.017219	1.825657
45.550390	798.050557	0.665638	0.017141	1.830558
45.701110	804.079191	0.670643	0.017112	1.835422
46.002714	810.106675	0.675648	0.017054	1.840313
46.215388	816.090212	0.680653	0.017012	1.845132
46.577438	822.110513	0.685658	0.016943	1.850009
46.749542	828.138635	0.690662	0.016909	1.854827
47.067904	834.159669	0.695667	0.016848	1.859667
47.232080	840.167036	0.700672	0.016815	1.864441
47.454685	846.174867	0.705677	0.016772	1.869220
47.632546	852.194342	0.710682	0.016737	1.873983
47.930960	858.210881	0.715686	0.016680	1.878764
48.010691	864.223376	0.720691	0.016663	1.883471
48.302626	870.229237	0.725696	0.016607	1.888218
48.377888	876.244701	0.730701	0.016592	1.892903
48.758163	882.259725	0.735706	0.016519	1.897657
48.823940	888.271263	0.740710	0.016505	1.902312
49.145839	894.281380	0.745715	0.016443	1.907024
49.294432	900.292245	0.750720	0.016414	1.911678
49.595694	906.312646	0.755725	0.016356	1.916368
49.690097	912.327252	0.760730	0.016336	1.920988
49.997426	918.336140	0.765734	0.016277	1.925649
50.138459	924.352877	0.770739	0.016249	1.930260
50.433185	930.351884	0.775744	0.016193	1.934887
50.480137	936.400966	0.780749	0.016182	1.939477
50.858848	942.364623	0.785754	0.016110	1.944077
50.949877	948.399758	0.790758	0.016091	1.948646
51.178439	954.429196	0.795763	0.016047	1.953235
51.249849	960.443010	0.800768	0.016032	1.957761
51.499856	966.430402	0.805773	0.015983	1.962303
51.708676	972.442153	0.810778	0.015943	1.966842
51.991959	978.459406	0.815782	0.015888	1.971393
52.009692	984.487340	0.820787	0.015883	1.975875
52.155234	990.510130	0.825792	0.015854	1.980374
52.223326	996.506605	0.830797	0.015840	1.984825
52.622816	1002.484540	0.835802	0.015764	1.989335
52.774142	1008.512656	0.840806	0.015734	1.993810
53.144092	1014.541162	0.845811	0.015663	1.998330
53.313868	1020.550230	0.850816	0.015630	2.002775
53.475821	1026.568250	0.855821	0.015598	2.007215
53.626144	1032.573336	0.860826	0.015568	2.011633
54.074360	1038.561232	0.865830	0.015482	2.016102
54.245932	1044.593724	0.870835	0.015449	2.020525
54.469321	1050.602908	0.875840	0.015405	2.024935
54.650377	1056.614628	0.880845	0.015370	2.029326
54.754220	1062.661853	0.885850	0.015349	2.033714
55.298771	1068.583992	0.890854	0.015245	2.038112
55.699814	1074.646197	0.895859	0.015169	2.042565
55.809262	1080.676431	0.900864	0.015147	2.046913
55.999876	1086.680325	0.905869	0.015109	2.051254
56.270427	1092.687163	0.910874	0.015057	2.055607
56.495657	1098.700315	0.915878	0.015013	2.059944
56.714072	1104.711550	0.920883	0.014971	2.064269
56.971391	1110.717960	0.925888	0.014921	2.068591
57.107363	1116.752689	0.930893	0.014894	2.072895
57.357446	1122.751308	0.935898	0.014846	2.077192
57.251376	1128.772249	0.940902	0.014864	2.081410
57.773706	1134.758017	0.945907	0.014765	2.085745
58.134317	1140.746961	0.950912	0.014695	2.090035
58.432735	1146.795139	0.955917	0.014638	2.094342
58.502523	1152.831102	0.960922	0.014623	2.098578
58.608650	1158.836313	0.965926	0.014602	2.102792
58.853999	1164.816774	0.970931	0.014554	2.107014
58.979832	1170.852028	0.975936	0.014529	2.111237
59.222536	1176.852222	0.980941	0.014482	2.115454
59.468501	1182.849306	0.985946	0.014435	2.119662
59.496259	1188.889226	0.990950	0.014428	2.123840
59.828372	1194.876600	0.995955	0.014364	2.128045
59.888348	1200.920962	1.000960	0.014351	2.132217
60.054693	1206.929423	1.005965	0.014319	2.136381
60.285083	1212.888908	1.010970	0.014274	2.140518
60.547013	1218.922832	1.015974	0.014223	2.144705
60.706213	1224.948096	1.020979	0.014192	2.148855
60.976893	1230.951670	1.025984	0.014140	2.153007
61.095346	1236.973868	1.030989	0.014116	2.157129
61.298240	1242.975317	1.035994	0.014076	2.161248
61.548940	1248.969304	1.040998	0.014028	2.165366
61.614474	1255.023217	1.046003	0.014014	2.169473
61.765878	1261.016921	1.051008	0.013984	2.173552
62.109129	1267.015000	1.056013	0.013918	2.177670
62.231496	1273.031658	1.061018	0.013894	2.181742
62.394508	1279.059282	1.066022	0.013862	2.185823
62.564369	1285.019273	1.071027	0.013828	2.189853
63.040551	1291.047385	1.076032	0.013738	2.193990
62.975729	1297.094972	1.081037	0.013748	2.198011
63.116533	1303.103105	1.086042	0.013720	2.202044
63.321783	1309.092074	1.091046	0.013680	2.206071
63.458091	1315.103991	1.096051	0.013653	2.210091
63.707029	1321.118491	1.101056	0.013605	2.214130
63.940733	1327.126859	1.106061	0.013560	2.218154
63.804390	1333.167018	1.111066	0.013584	2.222110
64.271170	1339.138621	1.116070	0.013495	2.226147
64.435330	1345.143590	1.121075	0.013462	2.230132
64.613343	1351.180765	1.126080	0.013428	2.234134
64.598841	1357.187862	1.131085	0.013429	2.238067
64.936861	1363.185478	1.136090	0.013364	2.242064
65.125639	1369.206356	1.141094	0.013327	2.246036
65.487259	1375.188069	1.146099	0.013258	2.250013
65.687439	1381.212202	1.151104	0.013219	2.253976
65.922550	1387.263624	1.156109	0.013173	2.257957
65.987667	1393.243285	1.161114	0.013159	2.261848
66.115977	1399.287575	1.166118	0.013134	2.265787
66.344308	1405.221427	1.171123	0.013089	2.269670
66.597115	1411.293156	1.176128	0.013040	2.273640
66.658025	1417.265308	1.181133	0.013028	2.277499
66.965693	1423.302720	1.186138	0.012968	2.281445
67.071869	1429.310174	1.191142	0.012947	2.285322
67.421836	1435.296731	1.196147	0.012880	2.289231
67.613336	1441.313687	1.201152	0.012842	2.293119
67.729005	1447.367650	1.206157	0.012819	2.297008
67.856389	1453.335914	1.211162	0.012794	2.300839
68.309205	1459.324744	1.216166	0.012707	2.304744
68.547728	1465.346169	1.221171	0.012661	2.308619
68.888011	1471.362462	1.226176	0.012596	2.312505
68.979590	1477.399409	1.231181	0.012577	2.316345
69.193661	1483.402479	1.236186	0.012535	2.320184
69.302388	1489.407911	1.241190	0.012513	2.323995
69.525126	1495.422578	1.246195	0.012470	2.327830
69.481250	1501.446972	1.251200	0.012477	2.331609
69.827972	1507.440246	1.256205	0.012410	2.335444
69.742186	1513.456773	1.261210	0.012425	2.339197
70.011829	1519.457287	1.266214	0.012373	2.343008
70.107484	1525.458642	1.271219	0.012354	2.346777
70.399983	1531.490777	1.276224	0.012297	2.350599
70.466620	1537.491464	1.281229	0.012283	2.354350
70.783475	1543.487002	1.286234	0.012222	2.358142
70.888764	1549.492104	1.291238	0.012201	2.361891
71.327233	1555.522806	1.296243	0.012117	2.365718
71.366995	1561.513918	1.301248	0.012108	2.369433
71.539343	1567.563715	1.306253	0.012074	2.373205
71.678765	1573.525690	1.311258	0.012047	2.376911
72.031164	1579.565693	1.316262	0.011979	2.380701
72.385381	1585.528634	1.321267	0.011911	2.384439
72.711865	1591.565547	1.326272	0.011848	2.388211
72.607152	1597.597092	1.331277	0.011867	2.391886
72.843532	1603.626677	1.336282	0.011821	2.395624
72.962976	1609.588081	1.341286	0.011797	2.399290
73.164473	1615.614049	1.346291	0.011758	2.403006
73.324269	1621.621348	1.351296	0.011726	2.406697
73.652313	1627.643101	1.356301	0.011663	2.410425
73.856441	1633.630558	1.361306	0.011623	2.414101
74.011837	1639.647864	1.366310	0.011593	2.417780
74.159987	1645.664699	1.371315	0.011563	2.421452
74.443559	1651.679164	1.376320	0.011509	2.425144
74.611666	1657.653456	1.381325	0.011476	2.428782
74.988379	1663.683679	1.386330	0.011403	2.432490
74.992376	1669.713482	1.391334	0.011401	2.436119
75.106531	1675.733046	1.396339	0.011378	2.439758
75.256743	1681.713236	1.401344	0.011349	2.443375
75.480858	1687.729479	1.406349	0.011305	2.447023
75.411751	1693.763521	1.411354	0.011317	2.450619
75.706495	1699.749575	1.416358	0.011260	2.454251
75.710181	1705.758873	1.421363	0.011258	2.457836
75.924833	1711.774550	1.426368	0.011216	2.461460
76.089578	1717.779733	1.431373	0.011183	2.465062
76.269671	1723.792009	1.436378	0.011148	2.468667
76.526801	1729.779545	1.441382	0.011098	2.472266
76.673126	1735.834346	1.446387	0.011069	2.475879
76.593287	1741.820742	1.451392	0.011083	2.479402
76.956932	1747.825233	1.456397	0.011013	2.483016
77.088097	1753.818582	1.461402	0.010987	2.486574
77.280186	1759.861954	1.466406	0.010950	2.490168
77.566972	1765.834958	1.471411	0.010894	2.493733
77.727861	1771.880302	1.476416	0.010863	2.497312
77.879336	1777.854591	1.481421	0.010833	2.500842
77.966394	1783.924159	1.486426	0.010815	2.504410
78.172994	1789.865520	1.491430	0.010775	2.507922
78.372908	1795.899698	1.496435	0.010736	2.511481
78.467962	1801.922777	1.501440	0.010716	2.515008
78.690284	1807.909093	1.506445	0.010673	2.518534
78.826920	1813.913279	1.511450	0.010646	2.522049
79.169084	1819.942709	1.516454	0.010580	2.525611
79.327314	1825.949511	1.521459	0.010549	2.529122
79.552174	1831.962524	1.526464	0.010505	2.532643
79.709333	1837.933930	1.531469	0.010474	2.536123
79.990443	1843.996737	1.536474	0.010420	2.539674
79.999528	1849.982906	1.541478	0.010417	2.543125
80.186263	1855.996212	1.546483	0.010380	2.546620
80.297962	1862.014261	1.551488	0.010358	2.550100
80.625489	1867.994836	1.556493	0.010295	2.553592
80.786128	1874.013606	1.561498	0.010263	2.557071
80.943199	1880.046749	1.566502	0.010233	2.560553
81.227571	1886.026433	1.571507	0.010178	2.564023
81.352234	1892.061967	1.576512	0.010153	2.567491
81.464238	1898.065956	1.581517	0.010130	2.570933
81.568668	1904.096687	1.586522	0.010109	2.574385
81.838541	1910.095657	1.591526	0.010057	2.577845
82.213861	1916.063168	1.596531	0.009985	2.581301
82.341548	1922.116327	1.601536	0.009960	2.584756
82.624973	1928.080555	1.606541	0.009905	2.588184
82.767978	1934.114794	1.611546	0.009877	2.591622
82.989116	1940.120914	1.616550	0.009834	2.595053
82.985692	1946.135481	1.621555	0.009833	2.598444
83.187249	1952.140078	1.626560	0.009794	2.601862
83.189892	1958.152134	1.631565	0.009792	2.605244
83.644984	1964.132680	1.636570	0.009705	2.608685
83.713797	1970.183255	1.641574	0.009690	2.612092
84.059998	1976.155331	1.646579	0.009624	2.615499
84.051166	1982.209375	1.651584	0.009624	2.618885
84.310113	1988.171450	1.656589	0.009574	2.622262
84.339734	1994.208824	1.661594	0.009567	2.625637
84.570014	2000.221477	1.666598	0.009522	2.629029
84.569829	2006.231471	1.671603	0.009521	2.632374
85.009803	2012.193149	1.676608	0.009437	2.635766
85.027409	2018.263054	1.681613	0.009432	2.639139
85.168897	2024.254498	1.686618	0.009404	2.642486
85.343712	2030.232946	1.691622	0.009370	2.645828
85.448081	2036.295002	1.696627	0.009349	2.649199
85.675269	2042.262997	1.701632	0.009304	2.652535
85.992313	2048.270034	1.706637	0.009243	2.655904
86.075247	2054.302116	1.711642	0.009226	2.659243
86.553653	2060.267612	1.716646	0.009135	2.662608
86.606736	2066.305183	1.721651	0.009124	2.665936
86.819377	2072.345015	1.726656	0.009082	2.669288
86.933531	2078.308505	1.731661	0.009059	2.672577
87.165720	2084.334690	1.736666	0.009014	2.675917
87.319370	2090.352722	1.741670	0.008984	2.679234
87.440900	2096.348385	1.746675	0.008960	2.682530
87.662691	2102.342326	1.751680	0.008917	2.685837
87.804184	2108.397136	1.756685	0.008889	2.689160
87.993345	2114.355010	1.761690	0.008852	2.692435
88.163742	2120.408351	1.766694	0.008818	2.695754
88.172047	2126.391785	1.771699	0.008815	2.699003
88.521447	2132.399948	1.776704	0.008748	2.702320
88.766914	2138.372157	1.781709	0.008701	2.705596
89.336326	2144.397605	1.786714	0.008592	2.708951
89.659973	2150.431524	1.791718	0.008530	2.712265
90.045086	2156.412707	1.796723	0.008456	2.715557
90.246198	2162.440407	1.801728	0.008417	2.718838
90.877373	2168.420633	1.806733	0.008297	2.722163
91.015912	2174.455578	1.811738	0.008270	2.725430
91.318380	2180.490898	1.816742	0.008211	2.728721
91.501471	2186.469602	1.821747	0.008175	2.731958
91.783862	2192.485791	1.826752	0.008121	2.735227
91.813546	2198.506987	1.831757	0.008114	2.738453
92.097089	2204.507065	1.836762	0.008059	2.741706
92.320143	2210.504036	1.841766	0.008016	2.744944
92.472424	2216.534959	1.846771	0.007986	2.748184
92.622410	2222.541547	1.851776	0.007956	2.751407
92.833503	2228.535691	1.856781	0.007915	2.754629
92.842937	2234.572620	1.861786	0.007912	2.757837
93.118124	2240.561705	1.866790	0.007859	2.761060
93.097904	2246.552429	1.871795	0.007861	2.764231
93.405966	2252.583882	1.876800	0.007802	2.767475
93.501609	2258.587469	1.881805	0.007782	2.770664
93.847165	2264.599831	1.886810	0.007716	2.773896
93.883618	2270.581369	1.891814	0.007708	2.777057
94.179338	2276.608037	1.896819	0.007651	2.780280
94.342240	2282.626025	1.901824	0.007619	2.783474
94.445731	2288.629596	1.906829	0.007598	2.786646
94.581891	2294.637711	1.911834	0.007571	2.789823
94.770379	2300.661014	1.916838	0.007534	2.793013
94.860229	2306.631753	1.921843	0.007516	2.796155
95.111990	2312.663755	1.926848	0.007467	2.799352
95.192145	2318.689431	1.931853	0.007450	2.802514
95.476565	2324.680510	1.936858	0.007395	2.805688
95.420475	2330.705649	1.941862	0.007404	2.808821
95.678517	2336.709064	1.946867	0.007355	2.811989
95.728570	2342.690408	1.951872	0.007344	2.815109
96.029819	2348.745963	1.956877	0.007286	2.818305
96.107992	2354.699702	1.961882	0.007269	2.821408
96.279417	2360.737397	1.966886	0.007236	2.824566
96.357905	2366.753833	1.971891	0.007220	2.827695
96.547241	2372.752599	1.976896	0.007183	2.830829
96.614009	2378.755267	1.981901	0.007169	2.833942
96.901695	2384.774852	1.986906	0.007113	2.837095
97.039309	2390.755271	1.991910	0.007086	2.840201
97.305566	2396.799923	1.996915	0.007034	2.843356
97.351900	2402.785277	2.001920	0.007024	2.846443
97.547747	2408.793370	2.006925	0.006986	2.849562
97.619586	2414.829087	2.011930	0.006971	2.852672
97.720610	2420.805257	2.016934	0.006951	2.855753
97.900204	2426.816975	2.021939	0.006915	2.858861
98.166094	2432.841946	2.026944	0.006864	2.861986
98.156915	2438.846460	2.031949	0.006864	2.865054
98.432612	2444.857320	2.036954	0.006811	2.868166
98.787410	2450.820138	2.041958	0.006743	2.871263
99.027015	2456.868887	2.046963	0.006696	2.874382
