Fri Jan 13 17:27:19 2023

Number of Points = 3000
Depth (nm)	Load (µN)	Time (s)	Depth (V)	Load (V)
0.000000	2.442454	0.000000	-0.037908	1.155416
2.956145	4.732654	0.005005	-0.038463	1.159657
7.804160	8.887482	0.010010	-0.039374	1.167074
12.116878	14.767189	0.015014	-0.040185	1.176335
14.723610	21.094308	0.020019	-0.040675	1.185303
16.717931	27.317321	0.025024	-0.041051	1.193803
18.021084	33.514825	0.030029	-0.041297	1.201905
19.191610	39.624333	0.035034	-0.041518	1.209788
20.083660	45.709246	0.040038	-0.041687	1.217469
21.146100	51.731939	0.045043	-0.041888	1.225102
21.788774	57.824425	0.050048	-0.042010	1.232588
22.585717	63.857287	0.055053	-0.042161	1.240025
23.076166	69.938036	0.060058	-0.042255	1.247342
23.842144	75.933063	0.065062	-0.042400	1.254634
24.437604	81.988535	0.070067	-0.042513	1.261882
25.163968	87.998706	0.075072	-0.042651	1.269090
25.616468	94.054647	0.080077	-0.042737	1.276196
26.411838	100.057649	0.085082	-0.042888	1.283344
26.836768	106.142876	0.090086	-0.042969	1.290393
27.509498	112.115034	0.095091	-0.043097	1.297378
28.032076	118.237968	0.100096	-0.043197	1.304433
28.462089	124.234756	0.105101	-0.043279	1.311272
29.081639	130.218441	0.110106	-0.043397	1.318136
29.536624	136.282266	0.115110	-0.043483	1.324988
30.091357	142.270326	0.120115	-0.043589	1.331761
30.704177	148.310744	0.125120	-0.043706	1.338579
31.067150	154.361101	0.130125	-0.043775	1.345275
31.567123	160.376370	0.135130	-0.043870	1.351954
32.056669	166.392709	0.140134	-0.043964	1.358596
32.415514	172.459037	0.145139	-0.044033	1.365209
32.855787	178.461867	0.150144	-0.044117	1.371754
33.370789	184.474830	0.155149	-0.044215	1.378307
33.939078	190.474145	0.160154	-0.044323	1.384835
34.567636	196.506886	0.165158	-0.044442	1.391390
34.848856	202.570866	0.170163	-0.044497	1.397815
35.465509	208.563034	0.175168	-0.044614	1.404262
35.696389	214.634007	0.180173	-0.044659	1.410617
36.209836	220.603507	0.185178	-0.044756	1.416944
36.566670	226.657199	0.190182	-0.044825	1.423271
37.094180	232.667821	0.195187	-0.044925	1.429589
37.419556	238.701486	0.200192	-0.044988	1.435828
37.963155	244.715057	0.205197	-0.045091	1.442100
38.148956	250.765968	0.210202	-0.045128	1.448252
38.691682	256.751117	0.215206	-0.045231	1.454440
39.180554	262.746867	0.220211	-0.045324	1.460594
40.339870	268.682712	0.225216	-0.045543	1.466901
40.625143	274.827129	0.230221	-0.045598	1.473076
41.327509	280.800101	0.235226	-0.045732	1.479204
41.662530	286.873421	0.240230	-0.045796	1.485276
42.172113	292.856242	0.245235	-0.045893	1.491296
42.478453	298.934170	0.250240	-0.045952	1.497314
42.983168	304.921429	0.255245	-0.046048	1.503288
43.393984	310.945986	0.260250	-0.046127	1.509242
43.845055	316.961938	0.265254	-0.046213	1.515177
44.084924	323.017601	0.270259	-0.046260	1.521056
44.645674	328.977051	0.275264	-0.046366	1.526929
45.041465	335.020088	0.280269	-0.046442	1.532803
45.497191	341.055326	0.285274	-0.046529	1.538667
45.953843	347.057967	0.290278	-0.046616	1.544478
46.339800	353.086104	0.295283	-0.046690	1.550268
46.815801	359.063999	0.300288	-0.046781	1.556019
47.477165	365.098678	0.305293	-0.046906	1.561864
47.692952	371.160899	0.310298	-0.046948	1.567564
48.150770	377.166704	0.315302	-0.047036	1.573271
48.327403	383.210295	0.320307	-0.047070	1.578901
48.757624	389.206875	0.325312	-0.047153	1.584549
48.877115	395.250940	0.330317	-0.047177	1.590120
49.399777	401.211671	0.335322	-0.047276	1.595726
49.473617	407.294679	0.340326	-0.047292	1.601279
49.848642	413.294088	0.345331	-0.047363	1.606833
50.044261	419.312092	0.350336	-0.047402	1.612328
50.459901	425.306159	0.355341	-0.047481	1.617853
50.632360	431.380509	0.360346	-0.047515	1.623353
50.984191	437.343471	0.365350	-0.047582	1.628792
51.218797	443.368675	0.370355	-0.047628	1.634231
51.550487	449.385533	0.375360	-0.047692	1.639675
51.918618	455.388599	0.380365	-0.047762	1.645100
52.289214	461.414366	0.385370	-0.047833	1.650528
52.523552	467.445265	0.390374	-0.047879	1.655901
52.938518	473.438068	0.395379	-0.047958	1.661278
53.152008	479.467213	0.400384	-0.048000	1.666608
53.543653	485.480111	0.405389	-0.048075	1.671961
53.716683	491.516421	0.410394	-0.048109	1.677250
54.186179	497.497862	0.415398	-0.048198	1.682566
54.342499	503.548744	0.420403	-0.048229	1.687829
54.714452	509.551733	0.425408	-0.048300	1.693100
54.973782	515.576111	0.430413	-0.048350	1.698340
55.362782	521.583994	0.435418	-0.048425	1.703587
55.642420	527.605258	0.440422	-0.048479	1.708797
55.895235	533.621414	0.445427	-0.048528	1.713979
56.084463	539.656179	0.450432	-0.048565	1.719142
56.340511	545.645811	0.455437	-0.048614	1.724272
56.739209	551.653447	0.460442	-0.048691	1.729443
57.160605	557.658780	0.465446	-0.048771	1.734603
57.379500	563.709832	0.470451	-0.048814	1.739727
57.852628	569.677704	0.475456	-0.048904	1.744841
58.074767	575.733265	0.480461	-0.048947	1.749940
58.362429	581.741922	0.485466	-0.049003	1.755003
58.474398	587.792522	0.490470	-0.049025	1.760036
58.840726	593.762665	0.495475	-0.049095	1.765062
59.124053	599.785693	0.500480	-0.049150	1.770093
59.315517	605.819891	0.505485	-0.049187	1.775092
59.720615	611.803809	0.510490	-0.049265	1.780097
59.975993	617.828743	0.515494	-0.049314	1.785079
60.372761	623.820992	0.520499	-0.049390	1.790060
60.794503	629.840438	0.525504	-0.049471	1.795057
60.902206	635.892197	0.530509	-0.049493	1.799977
61.238789	641.885535	0.535514	-0.049557	1.804901
61.417024	647.917137	0.540518	-0.049592	1.809798
61.575994	653.949996	0.545523	-0.049623	1.814677
61.901771	659.916843	0.550528	-0.049686	1.819537
62.054599	665.953910	0.555533	-0.049716	1.824392
62.475076	671.946588	0.560538	-0.049797	1.829272
62.928895	677.929008	0.565542	-0.049883	1.834141
63.481226	683.944589	0.570547	-0.049988	1.839050
63.844747	689.993126	0.575552	-0.050058	1.843920
64.228584	695.993416	0.580557	-0.050132	1.848744
64.557266	702.024461	0.585562	-0.050195	1.853565
64.774265	708.073889	0.590566	-0.050237	1.858358
65.092786	714.043246	0.595571	-0.050298	1.863103
65.407416	720.045025	0.600576	-0.050359	1.867860
65.504165	726.104314	0.605581	-0.050378	1.872591
65.897920	732.074778	0.610586	-0.050454	1.877321
66.152418	738.116158	0.615590	-0.050503	1.882056
66.455753	744.127335	0.620595	-0.050561	1.886770
66.613665	750.153469	0.625600	-0.050593	1.891444
66.840653	756.139796	0.630605	-0.050637	1.896094
67.179445	762.153264	0.635610	-0.050702	1.900784
67.573284	768.158025	0.640614	-0.050777	1.905469
67.957327	774.160069	0.645619	-0.050851	1.910139
68.121540	780.218670	0.650624	-0.050883	1.914782
68.405656	786.215044	0.655629	-0.050938	1.919398
68.646021	792.229509	0.660634	-0.050984	1.924006
69.042474	798.224070	0.665638	-0.051060	1.928627
69.163040	804.260918	0.670643	-0.051084	1.933198
69.673059	810.267663	0.675648	-0.051181	1.937836
69.712931	816.283993	0.680653	-0.051190	1.942350
70.133854	822.273274	0.685658	-0.051271	1.946930
70.117529	828.321579	0.690662	-0.051269	1.951431
70.564255	834.300760	0.695667	-0.051355	1.955989
70.857342	840.316069	0.700672	-0.051411	1.960524
71.238239	846.317550	0.705677	-0.051484	1.965060
71.356570	852.373619	0.710682	-0.051508	1.969560
71.704238	858.359566	0.715686	-0.051575	1.974056
71.822095	864.400185	0.720691	-0.051598	1.978523
72.087293	870.391220	0.725696	-0.051649	1.982981
72.259610	876.415081	0.730701	-0.051683	1.987430
72.555332	882.403670	0.735706	-0.051740	1.991874
72.856521	888.405802	0.740710	-0.051798	1.996320
73.101101	894.456959	0.745715	-0.051846	2.000776
73.121489	900.462623	0.750720	-0.051851	2.005135
73.495386	906.449596	0.755725	-0.051923	2.009557
73.693706	912.489237	0.760730	-0.051961	2.013965
74.050182	918.479123	0.765734	-0.052030	2.018366
74.103394	924.531981	0.770739	-0.052041	2.022728
74.505321	930.495381	0.775744	-0.052118	2.027103
74.673152	936.491754	0.780749	-0.052151	2.031434
74.906875	942.554786	0.785754	-0.052196	2.035819
75.090043	948.552090	0.790758	-0.052232	2.040136
75.394993	954.560769	0.795763	-0.052291	2.044481
75.475543	960.582603	0.800768	-0.052307	2.048772
75.890125	966.570450	0.805773	-0.052387	2.053110
76.256132	972.587499	0.810778	-0.052457	2.057449
76.324994	978.601280	0.815782	-0.052471	2.061704
76.592824	984.626065	0.820787	-0.052523	2.066006
76.781312	990.630341	0.825792	-0.052560	2.070266
77.031645	996.636418	0.830797	-0.052608	2.074532
77.130501	1002.675513	0.835802	-0.052628	2.078778
77.323732	1008.670816	0.840806	-0.052666	2.083006
77.636276	1014.677280	0.845811	-0.052726	2.087261
77.889053	1020.683088	0.850816	-0.052775	2.091494
78.065758	1026.711792	0.855821	-0.052810	2.095716
78.388589	1032.685014	0.860826	-0.052872	2.099925
78.485763	1038.737039	0.865830	-0.052892	2.104127
78.782133	1044.727010	0.870835	-0.052949	2.108324
78.970356	1050.754915	0.875840	-0.052986	2.112514
79.214905	1056.750884	0.880845	-0.053033	2.116687
79.571740	1062.743997	0.885850	-0.053101	2.120876
79.651854	1068.781139	0.890854	-0.053118	2.125022
79.918933	1074.804087	0.895859	-0.053170	2.129194
80.067775	1080.788875	0.900864	-0.053199	2.133305
80.417412	1086.818954	0.905869	-0.053266	2.137484
80.457972	1092.845452	0.910874	-0.053275	2.141582
80.858568	1098.813135	0.915878	-0.053352	2.145714
81.136737	1104.824727	0.920883	-0.053405	2.149840
81.451148	1110.854231	0.925888	-0.053466	2.153979
81.581248	1116.876697	0.930893	-0.053492	2.158063
81.842393	1122.884967	0.935898	-0.053542	2.162159
81.915019	1128.902832	0.940902	-0.053557	2.166212
82.055564	1134.910370	0.945907	-0.053585	2.170265
82.182352	1140.920802	0.950912	-0.053611	2.174310
82.504100	1146.907519	0.955917	-0.053672	2.178375
82.590980	1152.939042	0.960922	-0.053690	2.182409
82.785491	1158.969208	0.965926	-0.053728	2.186459
83.134726	1164.910315	0.970931	-0.053795	2.190477
83.547056	1170.949841	0.975936	-0.053874	2.194567
83.767122	1176.980561	0.980941	-0.053917	2.198601
84.029371	1182.979061	0.985946	-0.053968	2.202615
84.279465	1189.008721	0.990950	-0.054016	2.206640
84.392180	1195.006433	0.995955	-0.054039	2.210606
84.616253	1201.014697	1.000960	-0.054082	2.214596
84.808151	1207.035218	1.005965	-0.054120	2.218580
84.887100	1213.049020	1.010970	-0.054136	2.222528
84.985000	1219.083304	1.015974	-0.054156	2.226487
85.111885	1225.059490	1.020979	-0.054181	2.230407
85.587467	1231.039310	1.025984	-0.054272	2.234397
85.511863	1237.111751	1.030989	-0.054259	2.238322
85.881281	1243.084794	1.035994	-0.054330	2.242271
86.080328	1249.105654	1.040998	-0.054369	2.246208
86.451397	1255.088932	1.046003	-0.054440	2.250150
86.603804	1261.129876	1.051008	-0.054470	2.254076
86.777768	1267.147604	1.056013	-0.054504	2.257984
86.880586	1273.158457	1.061018	-0.054525	2.261866
87.332743	1279.119678	1.066022	-0.054611	2.265784
87.314696	1285.192405	1.071027	-0.054609	2.269667
87.675160	1291.154485	1.076032	-0.054678	2.273552
87.775747	1297.201327	1.081037	-0.054699	2.277430
87.970885	1303.209781	1.086042	-0.054737	2.281297
88.086890	1309.196094	1.091046	-0.054760	2.285126
88.507595	1315.193508	1.096051	-0.054841	2.289020
88.587202	1321.240501	1.101056	-0.054857	2.292868
88.911122	1327.235119	1.106061	-0.054919	2.296726
89.072906	1333.243026	1.111066	-0.054951	2.300553
89.295396	1339.248932	1.116070	-0.054994	2.304385
89.559647	1345.248494	1.121075	-0.055045	2.308215
89.846765	1351.274820	1.126080	-0.055101	2.312060
90.083212	1357.283324	1.131085	-0.055147	2.315877
90.219119	1363.299203	1.136090	-0.055174	2.319672
90.369498	1369.320526	1.141094	-0.055203	2.323467
90.624962	1375.299644	1.146099	-0.055253	2.327251
90.853043	1381.344380	1.151104	-0.055297	2.331064
90.955403	1387.347197	1.156109	-0.055318	2.334818
91.021047	1393.357265	1.161114	-0.055332	2.338564
91.318149	1399.343678	1.166118	-0.055389	2.342336
91.504378	1405.365618	1.171123	-0.055425	2.346102
91.642205	1411.383479	1.176128	-0.055453	2.349849
91.871242	1417.392480	1.181133	-0.055497	2.353603
92.117600	1423.377432	1.186138	-0.055545	2.357340
92.363604	1429.393286	1.191142	-0.055592	2.361090
92.531505	1435.434877	1.196147	-0.055625	2.364834
92.676088	1441.416372	1.201152	-0.055654	2.368531
92.958613	1447.436372	1.206157	-0.055709	2.372272
93.036290	1453.468573	1.211162	-0.055725	2.375975
93.299933	1459.436027	1.216166	-0.055776	2.379669
93.473162	1465.458982	1.221171	-0.055810	2.383373
93.686360	1471.472980	1.226176	-0.055851	2.387074
93.842423	1477.501544	1.231181	-0.055882	2.390767
94.077331	1483.494464	1.236186	-0.055927	2.394448
94.121178	1489.512529	1.241190	-0.055937	2.398101
94.435848	1495.504075	1.246195	-0.055998	2.401785
94.664723	1501.537484	1.251200	-0.056042	2.405473
94.931471	1507.515629	1.256205	-0.056094	2.409128
95.084587	1513.551548	1.261210	-0.056124	2.412791
95.286620	1519.575361	1.266214	-0.056163	2.416450
95.436807	1525.545167	1.271219	-0.056193	2.420061
95.818113	1531.552801	1.276224	-0.056266	2.423735
95.866497	1537.599600	1.281229	-0.056276	2.427361
96.111637	1543.581542	1.286234	-0.056324	2.430982
96.250391	1549.625785	1.291238	-0.056351	2.434614
96.379319	1555.610481	1.296243	-0.056377	2.438203
96.387978	1561.619520	1.301248	-0.056380	2.441777
96.647727	1567.641362	1.306253	-0.056431	2.445403
96.873171	1573.615238	1.311258	-0.056474	2.448988
97.138260	1579.648784	1.316262	-0.056526	2.452611
97.269620	1585.662670	1.321267	-0.056552	2.456191
97.469040	1591.676350	1.326272	-0.056591	2.459779
97.717984	1597.671005	1.331277	-0.056639	2.463360
97.988274	1603.644845	1.336282	-0.056691	2.466927
98.195451	1609.730365	1.341286	-0.056731	2.470543
98.388999	1615.702395	1.346291	-0.056769	2.474084
98.502209	1621.718428	1.351296	-0.056792	2.477631
98.587709	1627.732635	1.356301	-0.056809	2.481166
98.841922	1633.733895	1.361306	-0.056859	2.484721
99.288075	1639.713867	1.366310	-0.056944	2.488294
99.297595	1645.759167	1.371315	-0.056947	2.491818
99.455115	1651.787335	1.376320	-0.056978	2.495355
99.659686	1657.759543	1.381325	-0.057018	2.498863
99.843391	1663.782564	1.386330	-0.057054	2.502391
100.156561	1669.767969	1.391334	-0.057114	2.505917
100.323066	1675.803836	1.396339	-0.057147	2.509440
100.557813	1681.800410	1.401344	-0.057192	2.512948
100.853929	1687.804772	1.406349	-0.057250	2.516467
101.102157	1693.830442	1.411354	-0.057298	2.519984
101.215842	1699.841398	1.416358	-0.057320	2.523463
101.620154	1705.790572	1.421363	-0.057398	2.526955
101.833205	1711.876896	1.426368	-0.057439	2.530486
101.851373	1717.890127	1.431373	-0.057444	2.533934
102.037777	1723.877854	1.436378	-0.057481	2.537394
102.169388	1729.878595	1.441382	-0.057507	2.540847
102.388400	1735.880150	1.446387	-0.057549	2.544311
102.466020	1741.916102	1.451392	-0.057565	2.547764
102.630270	1747.907064	1.456397	-0.057598	2.551203
102.717930	1753.958481	1.461402	-0.057616	2.554657
102.885400	1759.893283	1.466406	-0.057649	2.558055
103.172835	1765.935885	1.471411	-0.057704	2.561532
103.322502	1771.965195	1.476416	-0.057734	2.564971
103.439878	1777.956905	1.481421	-0.057757	2.568379
103.760627	1783.951037	1.486426	-0.057819	2.571819
103.932690	1790.030198	1.491430	-0.057853	2.575277
103.834602	1796.021120	1.496435	-0.057836	2.578632
104.169779	1801.976020	1.501440	-0.057900	2.582039
104.400739	1807.986111	1.506445	-0.057945	2.585455
104.584345	1814.025511	1.511450	-0.057981	2.588874
104.650705	1820.024662	1.516454	-0.057995	2.592245
104.764065	1826.025395	1.521459	-0.058017	2.595620
104.865353	1832.053800	1.526464	-0.058038	2.599005
105.128934	1838.028261	1.531469	-0.058089	2.602384
105.432267	1844.021062	1.536474	-0.058147	2.605776
105.731131	1850.071047	1.541478	-0.058205	2.609194
105.935985	1856.064793	1.546483	-0.058245	2.612560
106.096226	1862.079987	1.551488	-0.058276	2.615926
106.251533	1868.110245	1.556493	-0.058307	2.619295
106.446631	1874.089216	1.561498	-0.058345	2.622638
106.722489	1880.079239	1.566502	-0.058398	2.625997
106.926722	1886.130054	1.571507	-0.058438	2.629372
107.070073	1892.138896	1.576512	-0.058466	2.632710
107.105292	1898.134295	1.581517	-0.058475	2.636017
107.310717	1904.148854	1.586522	-0.058515	2.639360
107.587251	1910.138798	1.591526	-0.058568	2.642698
107.875023	1916.142083	1.596531	-0.058623	2.646040
108.176274	1922.176006	1.601536	-0.058681	2.649398
108.309609	1928.170771	1.606541	-0.058708	2.652700
108.559465	1934.183295	1.611546	-0.058756	2.656029
108.840928	1940.201036	1.616550	-0.058811	2.659361
109.087498	1946.201966	1.621555	-0.058858	2.662674
109.350481	1952.196205	1.626560	-0.058909	2.665982
109.534325	1958.233284	1.631565	-0.058945	2.669296
109.762433	1964.217495	1.636570	-0.058990	2.672584
109.761954	1970.255644	1.641574	-0.058991	2.675859
109.998757	1976.250392	1.646579	-0.059037	2.679147
110.283606	1982.243380	1.651584	-0.059092	2.682437
110.295600	1988.266425	1.656589	-0.059096	2.685694
110.375228	1994.297019	1.661594	-0.059112	2.688962
110.545894	2000.292014	1.666598	-0.059145	2.692222
110.719840	2006.284086	1.671603	-0.059180	2.695477
110.803494	2012.317571	1.676608	-0.059197	2.698736
111.106238	2018.284103	1.681613	-0.059255	2.701991
111.307402	2024.315985	1.686618	-0.059294	2.705261
111.404903	2030.357357	1.691622	-0.059314	2.708514
111.465773	2036.339853	1.696627	-0.059327	2.711725
111.565168	2042.344350	1.701632	-0.059347	2.714951
111.831152	2048.349755	1.706637	-0.059399	2.718202
112.150452	2054.338888	1.711642	-0.059460	2.721448
112.464611	2060.362804	1.716646	-0.059520	2.724708
112.300261	2066.409227	1.721651	-0.059491	2.727898
112.321590	2072.410717	1.726656	-0.059497	2.731090
112.561671	2078.404187	1.731661	-0.059543	2.734310
112.744636	2084.377263	1.736666	-0.059579	2.737506
113.105987	2090.395838	1.741670	-0.059648	2.740752
113.176524	2096.460116	1.746675	-0.059663	2.743971
113.243760	2102.425542	1.751680	-0.059677	2.747133
113.380289	2108.442705	1.756685	-0.059704	2.750330
113.581341	2114.460591	1.761690	-0.059743	2.753534
114.001170	2120.412489	1.766694	-0.059824	2.756735
114.378513	2126.448328	1.771699	-0.059896	2.759970
114.393125	2132.496713	1.776704	-0.059900	2.763148
114.336925	2138.501919	1.781709	-0.059891	2.766289
114.609940	2144.478885	1.786714	-0.059944	2.769465
114.873526	2150.489686	1.791718	-0.059995	2.772653
115.244288	2156.488222	1.796723	-0.060066	2.775848
115.234083	2162.548124	1.801728	-0.060065	2.779011
115.250240	2168.528919	1.806733	-0.060070	2.782132
115.342892	2174.521632	1.811738	-0.060089	2.785269
115.490347	2180.552293	1.816742	-0.060118	2.788431
115.853929	2186.515493	1.821747	-0.060188	2.791588
116.471426	2192.518212	1.826752	-0.060305	2.794803
116.893805	2198.566630	1.831757	-0.060386	2.798007
116.859911	2204.591346	1.836762	-0.060381	2.801122
117.059604	2210.576285	1.841766	-0.060420	2.804251
117.376838	2216.574229	1.846771	-0.060481	2.807401
117.670273	2222.581590	1.851776	-0.060537	2.810548
117.939736	2228.630502	1.856781	-0.060589	2.813710
117.868041	2234.617008	1.861786	-0.060577	2.816782
118.095303	2240.631253	1.866790	-0.060622	2.819912
118.318849	2246.644960	1.871795	-0.060665	2.823038
118.484450	2252.636984	1.876800	-0.060698	2.826140
118.608612	2258.647779	1.881805	-0.060722	2.829242
118.747492	2264.675383	1.886810	-0.060750	2.832351
118.807096	2270.671676	1.891814	-0.060763	2.835428
119.049384	2276.686516	1.896819	-0.060809	2.838540
119.120669	2282.677152	1.901824	-0.060824	2.841610
119.405271	2288.679608	1.906829	-0.060879	2.844715
119.570934	2294.722659	1.911834	-0.060912	2.847819
119.816403	2300.711235	1.916838	-0.060959	2.850905
119.877149	2306.728366	1.921843	-0.060972	2.853973
120.053447	2312.730332	1.926848	-0.061007	2.857048
120.124871	2318.733253	1.931853	-0.061022	2.860103
120.372086	2324.758175	1.936858	-0.061070	2.863194
120.553150	2330.733982	1.941862	-0.061105	2.866247
120.731122	2336.767878	1.946867	-0.061140	2.869325
120.900838	2342.793560	1.951872	-0.061173	2.872394
120.938059	2348.769454	1.956877	-0.061182	2.875414
121.049259	2354.811630	1.961882	-0.061204	2.878476
121.170309	2360.797136	1.966886	-0.061228	2.881508
121.492618	2366.791337	1.971891	-0.061290	2.884572
121.650542	2372.828269	1.976896	-0.061321	2.887629
121.753658	2378.830416	1.981901	-0.061342	2.890656
121.791177	2384.856292	1.986906	-0.061351	2.893683
121.931038	2390.830080	1.991910	-0.061378	2.896696
