Fri Jan 13 17:27:19 2023

Number of Points = 3000
Depth (nm)	Load (µN)	Time (s)	Depth (V)	Load (V)
-3.234869	1.280795	0.000000	-0.061368	1.210221
0.000000	4.629574	0.005005	-0.061976	1.215637
3.512528	9.351660	0.010010	-0.062636	1.222779
6.930959	15.186763	0.015014	-0.063279	1.231148
10.072361	21.259836	0.020019	-0.063870	1.239620
12.560817	27.430090	0.025024	-0.064338	1.247868
14.545880	33.586717	0.030029	-0.064712	1.255834
16.269523	39.697807	0.035034	-0.065037	1.263588
17.547820	45.818024	0.040038	-0.065279	1.271119
19.097386	51.809778	0.045043	-0.065571	1.278571
20.022112	57.974771	0.050048	-0.065746	1.285919
21.077487	63.973650	0.055053	-0.065946	1.293091
22.116113	70.036264	0.060058	-0.066142	1.300288
22.927573	76.139293	0.065062	-0.066296	1.307398
23.657450	82.146822	0.070067	-0.066434	1.314332
24.473392	88.143786	0.075072	-0.066589	1.321251
24.942841	94.240221	0.080077	-0.066678	1.328105
25.674363	100.222468	0.085082	-0.066817	1.334904
26.379729	106.266581	0.090086	-0.066951	1.341724
27.082525	112.267835	0.095091	-0.067084	1.348462
27.514978	118.365161	0.100096	-0.067167	1.355165
28.178897	124.336022	0.105101	-0.067293	1.361789
28.637579	130.415802	0.110106	-0.067381	1.368418
29.043065	136.440710	0.115110	-0.067458	1.374936
29.641853	142.436048	0.120115	-0.067572	1.381465
30.190889	148.466886	0.125120	-0.067677	1.387982
30.733661	154.495980	0.130125	-0.067780	1.394465
31.192051	160.520725	0.135130	-0.067867	1.400881
31.640456	166.547921	0.140134	-0.067953	1.407266
32.134929	172.574150	0.145139	-0.068047	1.413639
32.705062	178.594407	0.150144	-0.068156	1.420004
33.118389	184.607431	0.155149	-0.068235	1.426276
33.463155	190.664270	0.160154	-0.068301	1.432540
34.110879	196.633782	0.165158	-0.068424	1.438798
34.685448	202.680397	0.170163	-0.068533	1.445080
35.108739	208.707683	0.175168	-0.068614	1.451261
35.654422	214.717784	0.180173	-0.068718	1.457443
36.014502	220.774002	0.185178	-0.068787	1.463577
36.517629	226.763108	0.190182	-0.068883	1.469670
36.843942	232.816228	0.195187	-0.068946	1.475739
37.393384	238.794983	0.200192	-0.069050	1.481788
38.007324	244.793680	0.205197	-0.069167	1.487855
38.755096	250.814595	0.210202	-0.069309	1.493964
39.285982	256.867337	0.215206	-0.069410	1.500004
39.566609	262.927015	0.220211	-0.069464	1.505940
39.999018	268.900376	0.225216	-0.069547	1.511823
40.509792	274.946112	0.230221	-0.069644	1.517778
40.820125	280.973595	0.235226	-0.069704	1.523624
41.170378	286.989401	0.240230	-0.069771	1.529450
41.558158	292.996150	0.245235	-0.069845	1.535258
42.194688	298.996569	0.250240	-0.069966	1.541122
42.470773	305.051136	0.255245	-0.070020	1.546893
42.851917	311.062837	0.260250	-0.070093	1.552638
43.303854	317.072527	0.265254	-0.070179	1.558383
43.742663	323.101749	0.270259	-0.070263	1.564120
44.122287	329.103033	0.275264	-0.070335	1.569792
44.577451	335.130134	0.280269	-0.070422	1.575491
44.920481	341.163000	0.285274	-0.070488	1.581138
45.437236	347.147599	0.290278	-0.070587	1.586778
45.774854	353.203490	0.295283	-0.070651	1.592404
46.104828	359.220850	0.300288	-0.070715	1.597973
46.486903	365.217013	0.305293	-0.070788	1.603520
46.976747	371.243954	0.310298	-0.070881	1.609110
47.328059	377.265432	0.315302	-0.070949	1.614631
47.667162	383.300016	0.320307	-0.071014	1.620141
47.999081	389.281295	0.325312	-0.071078	1.625583
48.415937	395.318770	0.330317	-0.071157	1.631083
48.822414	401.322029	0.335322	-0.071235	1.636531
49.121762	407.359282	0.340326	-0.071293	1.641958
49.552877	413.348449	0.345331	-0.071375	1.647365
49.910937	419.378294	0.350336	-0.071444	1.652767
50.245878	425.414610	0.355341	-0.071508	1.658150
50.606210	431.417232	0.360346	-0.071577	1.663494
50.896409	437.434089	0.365350	-0.071633	1.668812
51.547923	443.407313	0.370355	-0.071757	1.674186
52.285571	449.377151	0.375360	-0.071897	1.679565
52.938567	455.449072	0.380365	-0.072021	1.684989
53.197025	461.503444	0.385370	-0.072071	1.690261
53.653533	467.497546	0.390374	-0.072158	1.695525
54.092372	473.523221	0.395379	-0.072242	1.700794
54.438664	479.546753	0.400384	-0.072308	1.706017
54.787548	485.556595	0.405389	-0.072375	1.711213
55.172341	491.580888	0.410394	-0.072449	1.716417
55.426945	497.601332	0.415398	-0.072498	1.721562
55.942718	503.581415	0.420403	-0.072597	1.726736
56.237642	509.622706	0.425408	-0.072653	1.731880
56.806770	515.636574	0.430413	-0.072762	1.737066
56.990432	521.672746	0.435418	-0.072798	1.742143
57.486034	527.651161	0.440422	-0.072892	1.747248
57.918530	533.677261	0.445427	-0.072975	1.752358
58.376080	539.688691	0.450432	-0.073062	1.757450
58.637518	545.731066	0.455437	-0.073113	1.762495
58.931012	551.753002	0.460442	-0.073169	1.767518
59.234968	557.746558	0.465446	-0.073228	1.772506
59.635907	563.769068	0.470451	-0.073304	1.777532
59.915715	569.779856	0.475456	-0.073358	1.782500
60.368097	575.768230	0.480461	-0.073445	1.787484
60.793129	581.775942	0.485466	-0.073526	1.792463
61.293509	587.818005	0.490470	-0.073621	1.797476
61.565816	593.838895	0.495475	-0.073674	1.802394
62.054695	599.828835	0.500480	-0.073767	1.807335
62.321651	605.866547	0.505485	-0.073819	1.812238
62.804835	611.878056	0.510490	-0.073911	1.817167
63.167420	617.887254	0.515494	-0.073980	1.822048
63.424114	623.899889	0.520499	-0.074030	1.826888
63.652566	629.938837	0.525504	-0.074074	1.831729
64.257948	635.901822	0.530509	-0.074190	1.836601
64.624597	641.944836	0.535514	-0.074260	1.841457
65.009926	647.956945	0.540518	-0.074334	1.846282
65.337048	653.967968	0.545523	-0.074397	1.851077
65.862131	659.965815	0.550528	-0.074497	1.855902
66.057669	666.025977	0.555533	-0.074535	1.860675
66.355602	672.032584	0.560538	-0.074592	1.865421
66.643390	678.024892	0.565542	-0.074648	1.870142
67.063282	684.026905	0.570547	-0.074728	1.874893
67.244208	690.087781	0.575552	-0.074763	1.879614
67.644639	696.062429	0.580557	-0.074840	1.884315
67.797974	702.109965	0.585562	-0.074870	1.888995
68.032221	708.110758	0.590566	-0.074916	1.893648
68.424137	714.115844	0.595571	-0.074991	1.898336
68.801875	720.108302	0.600576	-0.075063	1.902998
69.095579	726.128499	0.605581	-0.075120	1.907647
69.563510	732.133840	0.610586	-0.075209	1.912320
69.884238	738.164126	0.615590	-0.075271	1.916961
70.253771	744.167886	0.620595	-0.075341	1.921584
70.640920	750.179835	0.625600	-0.075416	1.926207
70.903332	756.213675	0.630605	-0.075466	1.930802
71.184306	762.227192	0.635610	-0.075520	1.935376
71.453227	768.233257	0.640614	-0.075572	1.939931
71.602077	774.251269	0.645619	-0.075602	1.944452
72.021245	780.231173	0.650624	-0.075682	1.949005
72.356198	786.258104	0.655629	-0.075746	1.953560
72.815549	792.283519	0.660634	-0.075834	1.958134
73.089812	798.280263	0.665638	-0.075887	1.962630
73.356730	804.307174	0.670643	-0.075939	1.967136
73.726937	810.293580	0.675648	-0.076009	1.971628
74.077029	816.332938	0.680653	-0.076077	1.976143
74.209826	822.341416	0.685658	-0.076103	1.980571
74.696549	828.349803	0.690662	-0.076196	1.985077
74.840172	834.368534	0.695667	-0.076224	1.989495
75.172905	840.383537	0.700672	-0.076288	1.993947
75.464740	846.401566	0.705677	-0.076345	1.998382
75.724377	852.410383	0.710682	-0.076395	2.002792
75.943914	858.427393	0.715686	-0.076437	2.007188
76.314078	864.426497	0.720691	-0.076508	2.011599
76.593326	870.428056	0.725696	-0.076562	2.015979
77.010817	876.437799	0.730701	-0.076642	2.020390
77.195296	882.466003	0.735706	-0.076678	2.024747
77.472880	888.486989	0.740710	-0.076732	2.029112
77.659489	894.497215	0.745715	-0.076768	2.033439
78.047250	900.498000	0.750720	-0.076842	2.037798
78.295980	906.497531	0.755725	-0.076891	2.042113
78.590660	912.546910	0.760730	-0.076947	2.046465
78.701732	918.548101	0.765734	-0.076970	2.050730
79.113836	924.541684	0.770739	-0.077049	2.055052
79.356327	930.540928	0.775744	-0.077096	2.059329
79.533124	936.598844	0.780749	-0.077130	2.063623
79.731872	942.590252	0.785754	-0.077169	2.067866
80.015636	948.597033	0.790758	-0.077224	2.072132
80.226952	954.619134	0.795763	-0.077265	2.076382
80.503768	960.612250	0.800768	-0.077318	2.080618
80.634155	966.653152	0.805773	-0.077344	2.084845
80.954537	972.630514	0.810778	-0.077406	2.089064
81.125503	978.653995	0.815782	-0.077439	2.093271
81.428764	984.681836	0.820787	-0.077498	2.097504
81.670459	990.654109	0.825792	-0.077545	2.101675
82.274819	996.623895	0.830797	-0.077660	2.105920
82.753891	1002.677650	0.835802	-0.077751	2.110186
83.066808	1008.716822	0.840806	-0.077811	2.114394
83.287488	1014.715615	0.845811	-0.077854	2.118545
83.379294	1020.758023	0.850816	-0.077873	2.122688
83.604048	1026.742645	0.855821	-0.077916	2.126814
83.872615	1032.760425	0.860826	-0.077968	2.130965
84.035195	1038.756609	0.865830	-0.078000	2.135068
84.389712	1044.772484	0.870835	-0.078068	2.139221
84.583252	1050.789890	0.875840	-0.078106	2.143330
84.809516	1056.812181	0.880845	-0.078150	2.147442
84.979185	1062.814444	0.885850	-0.078183	2.151519
85.460652	1068.786594	0.890854	-0.078275	2.155640
85.799507	1074.811855	0.895859	-0.078340	2.159755
86.037355	1080.861884	0.900864	-0.078386	2.163857
86.065021	1086.868855	0.905869	-0.078393	2.167875
86.210219	1092.895803	0.910874	-0.078422	2.171925
86.547752	1098.858525	0.915878	-0.078487	2.175967
86.892680	1104.871819	0.920883	-0.078553	2.180038
87.026578	1110.912547	0.925888	-0.078579	2.184072
87.305453	1116.900614	0.930893	-0.078633	2.188095
87.274880	1122.950674	0.935898	-0.078629	2.192084
87.463415	1128.958956	0.940902	-0.078666	2.196087
87.653659	1134.912982	0.945907	-0.078703	2.200046
88.211761	1140.928703	0.950912	-0.078809	2.204120
88.381937	1146.959761	0.955917	-0.078843	2.208112
88.657946	1152.992773	0.960922	-0.078896	2.212120
88.764485	1159.001051	0.965926	-0.078917	2.216068
89.042267	1164.971576	0.970931	-0.078971	2.220022
89.357864	1170.988624	0.975936	-0.079032	2.224007
89.746709	1176.996165	0.980941	-0.079106	2.227995
89.723599	1183.064529	0.985946	-0.079103	2.231925
89.974739	1189.049497	0.990950	-0.079152	2.235854
90.054442	1195.043598	0.995955	-0.079168	2.239745
90.218775	1201.070141	1.000960	-0.079201	2.243669
90.442299	1207.060995	1.005965	-0.079244	2.247575
90.810590	1213.080897	1.010970	-0.079315	2.251524
90.966048	1219.114801	1.015974	-0.079345	2.255430
90.957799	1225.131048	1.020979	-0.079345	2.259282
91.151008	1231.103333	1.025984	-0.079383	2.263143
91.394706	1237.114004	1.030989	-0.079430	2.267033
91.791721	1243.115951	1.035994	-0.079506	2.270942
92.105661	1249.128411	1.040998	-0.079567	2.274834
92.143393	1255.170471	1.046003	-0.079575	2.278680
92.318665	1261.162655	1.051008	-0.079610	2.282517
92.647642	1267.166482	1.056013	-0.079673	2.286386
92.941448	1273.168685	1.061018	-0.079729	2.290241
93.157945	1279.185052	1.066022	-0.079772	2.294082
93.368376	1285.208242	1.071027	-0.079813	2.297920
93.547988	1291.220570	1.076032	-0.079848	2.301737
93.697076	1297.235205	1.081037	-0.079877	2.305544
93.846158	1303.215791	1.086042	-0.079907	2.309323
94.141201	1309.245509	1.091046	-0.079964	2.313157
94.404825	1315.246584	1.096051	-0.080014	2.316960
94.590060	1321.273329	1.101056	-0.080051	2.320756
94.750692	1327.267275	1.106061	-0.080082	2.324521
94.926182	1333.291315	1.111066	-0.080117	2.328301
95.330710	1339.253648	1.116070	-0.080194	2.332084
95.752715	1345.310026	1.121075	-0.080275	2.335923
95.957164	1351.295751	1.126080	-0.080315	2.339667
96.331978	1357.317183	1.131085	-0.080387	2.343461
96.545783	1363.324331	1.136090	-0.080428	2.347208
96.870176	1369.335134	1.141094	-0.080490	2.350974
97.042181	1375.359875	1.146099	-0.080524	2.354711
97.229837	1381.364246	1.151104	-0.080561	2.358433
97.432865	1387.362763	1.156109	-0.080601	2.362149
97.521043	1393.415702	1.161114	-0.080619	2.365869
97.575192	1399.388861	1.166118	-0.080630	2.369528
97.960543	1405.384769	1.171123	-0.080704	2.373261
98.248305	1411.395958	1.176128	-0.080759	2.376978
98.447430	1417.436292	1.181133	-0.080798	2.380689
98.587611	1423.443716	1.186138	-0.080826	2.384362
98.892227	1429.409862	1.191142	-0.080885	2.388038
99.070422	1435.452062	1.196147	-0.080920	2.391729
99.360909	1441.487244	1.201152	-0.080976	2.395432
99.482144	1447.450495	1.206157	-0.081000	2.399052
99.681563	1453.484504	1.211162	-0.081039	2.402725
99.886775	1459.482894	1.216166	-0.081079	2.406372
100.223972	1465.503478	1.221171	-0.081144	2.410053
100.147112	1471.542823	1.226176	-0.081131	2.413659
100.390510	1477.504605	1.231181	-0.081178	2.417275
100.683082	1483.515965	1.236186	-0.081234	2.420924
101.054930	1489.538857	1.241190	-0.081305	2.424591
101.201397	1495.530142	1.246195	-0.081334	2.428189
101.417390	1501.554311	1.251200	-0.081376	2.431815
101.670566	1507.573203	1.256205	-0.081425	2.435440
101.993899	1513.560056	1.261210	-0.081488	2.439054
102.154878	1519.567324	1.266214	-0.081519	2.442643
102.323082	1525.615284	1.271219	-0.081552	2.446252
102.777692	1531.569949	1.276224	-0.081639	2.449856
103.318521	1537.594029	1.281229	-0.081742	2.453512
103.514496	1543.598062	1.286234	-0.081780	2.457084
103.637397	1549.658287	1.291238	-0.081805	2.460671
103.868243	1555.636124	1.296243	-0.081850	2.464224
104.155456	1561.630392	1.301248	-0.081905	2.467793
104.346026	1567.672536	1.306253	-0.081942	2.471366
104.518845	1573.691095	1.311258	-0.081976	2.474917
104.701255	1579.651376	1.316262	-0.082012	2.478430
105.028860	1585.691054	1.321267	-0.082075	2.482013
105.184801	1591.693903	1.326272	-0.082106	2.485536
105.435568	1597.706535	1.331277	-0.082154	2.489077
105.669781	1603.733530	1.336282	-0.082200	2.492619
105.999838	1609.727093	1.341286	-0.082263	2.496154
105.992480	1615.738153	1.346291	-0.082263	2.499632
106.261360	1621.755737	1.351296	-0.082315	2.503159
106.314058	1627.744349	1.356301	-0.082327	2.506625
106.438966	1633.781236	1.361306	-0.082351	2.510128
106.841728	1639.762632	1.366310	-0.082428	2.513644
107.088623	1645.773680	1.371315	-0.082476	2.517144
107.270260	1651.787825	1.376320	-0.082512	2.520629
107.707410	1657.793344	1.381325	-0.082595	2.524151
107.878045	1663.792589	1.386330	-0.082629	2.527616
107.972900	1669.849078	1.391334	-0.082648	2.531095
108.196649	1675.826707	1.396339	-0.082692	2.534547
108.430552	1681.832427	1.401344	-0.082737	2.538013
108.566854	1687.844280	1.406349	-0.082764	2.541459
108.834639	1693.863846	1.411354	-0.082816	2.544929
108.990799	1699.839448	1.416358	-0.082847	2.548350
109.335098	1705.875797	1.421363	-0.082913	2.551834
109.358542	1711.909973	1.426368	-0.082919	2.555254
109.408852	1717.915768	1.431373	-0.082930	2.558658
109.630063	1723.886702	1.436378	-0.082973	2.562069
109.831079	1729.912093	1.441382	-0.083012	2.565502
109.922546	1735.935396	1.446387	-0.083030	2.568910
110.209337	1741.933997	1.451392	-0.083086	2.572334
110.579364	1747.938509	1.456397	-0.083157	2.575772
110.981215	1753.979355	1.461402	-0.083234	2.579231
111.189705	1759.936703	1.466406	-0.083274	2.582605
111.422975	1765.949415	1.471411	-0.083319	2.586009
111.670427	1771.972149	1.476416	-0.083367	2.589417
111.912473	1777.993517	1.481421	-0.083414	2.592819
112.067953	1783.971377	1.486426	-0.083445	2.596177
112.188064	1790.037935	1.491430	-0.083469	2.599573
112.334579	1795.993102	1.496435	-0.083498	2.602908
112.621238	1802.013215	1.501440	-0.083553	2.606299
112.702700	1808.053104	1.506445	-0.083570	2.609661
112.929198	1814.036299	1.511450	-0.083614	2.613012
113.042604	1820.022151	1.516454	-0.083637	2.616341
113.310820	1826.069736	1.521459	-0.083688	2.619726
113.476633	1832.058554	1.526464	-0.083721	2.623057
113.523993	1838.093379	1.531469	-0.083731	2.626388
113.832604	1844.066468	1.536474	-0.083791	2.629727
113.976609	1850.111267	1.541478	-0.083819	2.633072
114.008496	1856.090452	1.546483	-0.083827	2.636357
114.272020	1862.108431	1.551488	-0.083878	2.639700
114.490391	1868.103639	1.556493	-0.083920	2.643018
114.694559	1874.144739	1.561498	-0.083960	2.646354
114.850747	1880.138026	1.566502	-0.083991	2.649652
114.954490	1886.156826	1.571507	-0.084012	2.652951
115.051748	1892.165721	1.576512	-0.084032	2.656239
115.325603	1898.156495	1.581517	-0.084084	2.659543
115.450108	1904.163296	1.586522	-0.084109	2.662827
115.651051	1910.165691	1.591526	-0.084148	2.666117
115.858037	1916.198542	1.596531	-0.084189	2.669420
116.185910	1922.193009	1.601536	-0.084252	2.672719
116.210780	1928.209761	1.606541	-0.084258	2.675975
116.511027	1934.216440	1.611546	-0.084316	2.679268
116.607627	1940.211635	1.616550	-0.084335	2.682516
116.881085	1946.227263	1.621555	-0.084388	2.685801
117.024705	1952.248666	1.626560	-0.084417	2.689063
117.245401	1958.254541	1.631565	-0.084459	2.692326
117.420463	1964.247762	1.636570	-0.084494	2.695570
117.994800	1970.234370	1.641574	-0.084603	2.698874
118.116154	1976.265665	1.646579	-0.084627	2.702122
118.357630	1982.284932	1.651584	-0.084674	2.705379
118.512182	1988.296603	1.656589	-0.084705	2.708614
118.821571	1994.310065	1.661594	-0.084764	2.711872
118.918709	2000.290940	1.666598	-0.084784	2.715073
119.296239	2006.322579	1.671603	-0.084856	2.718344
119.573210	2012.316021	1.676608	-0.084910	2.721574
119.801863	2018.321211	1.681613	-0.084954	2.724799
119.875893	2024.358766	1.686618	-0.084969	2.728011
120.077977	2030.363099	1.691622	-0.085009	2.731223
120.198017	2036.365860	1.696627	-0.085033	2.734417
120.504273	2042.349845	1.701632	-0.085092	2.737627
120.719435	2048.373478	1.706637	-0.085134	2.740840
120.873030	2054.400299	1.711642	-0.085164	2.744041
120.956485	2060.388339	1.716646	-0.085181	2.747206
121.206784	2066.420190	1.721651	-0.085230	2.750418
121.387034	2072.422055	1.726656	-0.085265	2.753598
121.667713	2078.402877	1.731661	-0.085319	2.756780
121.661177	2084.421209	1.736666	-0.085319	2.759932
121.958997	2090.454401	1.741670	-0.085377	2.763137
122.009741	2096.446832	1.746675	-0.085388	2.766277
122.300312	2102.457600	1.751680	-0.085444	2.769462
122.427779	2108.465926	1.756685	-0.085469	2.772616
122.661696	2114.460930	1.761690	-0.085514	2.775776
122.865534	2120.476401	1.766694	-0.085554	2.778938
122.956927	2126.516085	1.771699	-0.085573	2.782091
122.956012	2132.490619	1.776704	-0.085574	2.785192
123.396793	2138.503302	1.781709	-0.085658	2.788380
123.475572	2144.527199	1.786714	-0.085675	2.791512
123.776417	2150.514371	1.791718	-0.085733	2.794658
123.663064	2156.548161	1.796723	-0.085713	2.797757
123.992239	2162.540353	1.801728	-0.085776	2.800902
124.124441	2168.546065	1.806733	-0.085802	2.804020
124.320583	2174.561972	1.811738	-0.085841	2.807149
124.411763	2180.565912	1.816742	-0.085859	2.810252
124.815350	2186.592010	1.821747	-0.085936	2.813412
124.745834	2192.581469	1.826752	-0.085925	2.816475
124.956335	2198.590945	1.831757	-0.085966	2.819590
125.189141	2204.600986	1.836762	-0.086011	2.822704
125.399288	2210.602157	1.841766	-0.086052	2.825807
125.645720	2216.609971	1.846771	-0.086100	2.828916
125.853380	2222.644360	1.851776	-0.086140	2.832028
126.062437	2228.605456	1.856781	-0.086181	2.835100
126.184988	2234.674388	1.861786	-0.086205	2.838210
126.330606	2240.639871	1.866790	-0.086234	2.841268
126.636237	2246.664485	1.871795	-0.086293	2.844377
126.612705	2252.677478	1.876800	-0.086290	2.847426
126.910530	2258.667978	1.881805	-0.086347	2.850510
127.125395	2264.679939	1.886810	-0.086389	2.853589
127.103042	2270.705914	1.891814	-0.086387	2.856635
127.249525	2276.685710	1.896819	-0.086415	2.859680
127.576918	2282.728324	1.901824	-0.086478	2.862781
127.827760	2288.664100	1.906829	-0.086527	2.865814
127.956459	2294.763073	1.911834	-0.086553	2.868906
128.230863	2300.731387	1.916838	-0.086606	2.871952
128.385692	2306.730065	1.921843	-0.086636	2.874992
128.342004	2312.769265	1.926848	-0.086629	2.878018
128.681998	2318.758904	1.931853	-0.086695	2.881075
128.858516	2324.751662	1.936858	-0.086729	2.884105
129.068034	2330.796999	1.941862	-0.086770	2.887163
129.194867	2336.773341	1.946867	-0.086795	2.890171
129.423758	2342.834542	1.951872	-0.086840	2.893234
129.434313	2348.784917	1.956877	-0.086843	2.896205
129.754464	2354.799503	1.961882	-0.086905	2.899252
129.822724	2360.835837	1.966886	-0.086919	2.902269
130.044597	2366.817068	1.971891	-0.086962	2.905278
130.088592	2372.841322	1.976896	-0.086972	2.908278
130.387083	2378.839145	1.981901	-0.087030	2.911301
130.629939	2384.837480	1.986906	-0.087077	2.914312
