Fri Jan 13 17:27:19 2023

Number of Points = 3000
Depth (nm)	Load (µN)	Time (s)	Depth (V)	Load (V)
-3.289158	1.238091	0.000000	0.001032	1.052942
0.000000	4.189871	0.005005	0.000415	1.058712
3.730949	8.666788	0.010010	-0.000287	1.066767
7.151757	14.475868	0.015014	-0.000930	1.076416
9.647937	20.639678	0.020019	-0.001400	1.085996
11.533637	26.881348	0.025024	-0.001755	1.095295
12.941687	33.045352	0.030029	-0.002021	1.104179
14.195996	39.178869	0.035034	-0.002258	1.112878
15.084821	45.279541	0.040038	-0.002426	1.121290
16.237935	51.310803	0.045043	-0.002644	1.129675
17.237694	57.362072	0.050048	-0.002833	1.137951
18.044855	63.467672	0.055053	-0.002986	1.146146
18.759354	69.504916	0.060058	-0.003122	1.154153
19.693935	75.519046	0.065062	-0.003298	1.162177
20.274814	81.616514	0.070067	-0.003409	1.170088
20.956015	87.657383	0.075072	-0.003538	1.177920
21.514519	93.691639	0.080077	-0.003645	1.185638
22.371737	99.696881	0.085082	-0.003807	1.193403
22.833704	105.786680	0.090086	-0.003895	1.201045
23.461109	111.816817	0.095091	-0.004014	1.208639
23.879202	117.872570	0.100096	-0.004094	1.216124
24.531973	123.883758	0.105101	-0.004218	1.223613
24.924303	129.951247	0.110106	-0.004293	1.231009
25.468416	135.958876	0.115110	-0.004397	1.238356
25.848442	142.029788	0.120115	-0.004470	1.245664
26.519488	147.995315	0.125120	-0.004597	1.252930
26.838879	154.090508	0.130125	-0.004659	1.260155
27.379554	160.073245	0.135130	-0.004762	1.267302
27.633829	166.155454	0.140134	-0.004811	1.274403
28.244764	172.141665	0.145139	-0.004927	1.281504
28.741177	178.180595	0.150144	-0.005022	1.288577
29.280083	184.198748	0.155149	-0.005124	1.295606
29.673265	190.290881	0.160154	-0.005199	1.302621
30.264550	196.271838	0.165158	-0.005312	1.309553
30.563927	202.319754	0.170163	-0.005370	1.316406
31.122099	208.319397	0.175168	-0.005476	1.323274
31.409395	214.373836	0.180173	-0.005531	1.330058
31.956773	220.357551	0.185178	-0.005635	1.336833
32.370090	226.412881	0.190182	-0.005714	1.343599
32.871303	232.426335	0.195187	-0.005810	1.350321
33.221703	238.452034	0.200192	-0.005877	1.356963
33.833612	244.461083	0.205197	-0.005993	1.363656
34.128823	250.524181	0.210202	-0.006050	1.370252
34.838266	256.482519	0.215206	-0.006185	1.376864
35.287033	262.557779	0.220211	-0.006271	1.383468
35.902743	268.545347	0.225216	-0.006388	1.390011
36.323363	274.596834	0.230221	-0.006468	1.396517
36.650975	280.658421	0.235226	-0.006531	1.402968
36.979535	286.658217	0.240230	-0.006594	1.409326
37.575888	292.645237	0.245235	-0.006708	1.415742
37.836598	298.722621	0.250240	-0.006758	1.422097
38.329372	304.723288	0.255245	-0.006852	1.428431
38.520859	310.769896	0.260250	-0.006889	1.434672
38.994785	316.761019	0.265254	-0.006980	1.440934
39.379473	322.790863	0.270259	-0.007053	1.447175
40.000156	328.781019	0.275264	-0.007171	1.453435
40.215752	334.881264	0.280269	-0.007213	1.459632
40.797786	340.822198	0.285274	-0.007324	1.465775
40.945682	346.908425	0.290278	-0.007353	1.471881
41.464189	352.880420	0.295283	-0.007452	1.477982
41.887779	358.910087	0.300288	-0.007533	1.484080
42.327833	364.931892	0.305293	-0.007617	1.490151
42.655717	370.966887	0.310298	-0.007680	1.496170
43.157078	376.974042	0.315302	-0.007776	1.502200
43.333589	383.034238	0.320307	-0.007810	1.508143
43.829609	389.008378	0.325312	-0.007905	1.514090
44.190956	395.039542	0.330317	-0.007974	1.520023
44.733871	401.037248	0.335322	-0.008078	1.525962
44.992189	407.094181	0.340326	-0.008128	1.531838
45.407245	413.114493	0.345331	-0.008207	1.537709
45.699258	419.130623	0.350336	-0.008263	1.543513
46.163036	425.155538	0.355341	-0.008352	1.549361
46.495103	431.145705	0.360346	-0.008415	1.555110
47.055756	437.146876	0.365350	-0.008522	1.560924
47.194874	443.230577	0.370355	-0.008550	1.566653
47.720708	449.201526	0.375360	-0.008650	1.572385
47.953660	455.265509	0.380365	-0.008695	1.578085
48.353737	461.255011	0.385370	-0.008772	1.583751
48.484318	467.304712	0.390374	-0.008798	1.589363
49.014166	473.264356	0.395379	-0.008899	1.595004
49.318703	479.295362	0.400384	-0.008957	1.600616
50.053648	485.289667	0.405389	-0.009097	1.606315
50.247544	491.357585	0.410394	-0.009135	1.611885
50.847730	497.350456	0.415398	-0.009249	1.617499
50.996868	503.423355	0.420403	-0.009278	1.623022
51.374355	509.396931	0.425408	-0.009350	1.628509
51.742851	515.403517	0.430413	-0.009421	1.634004
52.052232	521.459935	0.435418	-0.009481	1.639506
52.282313	527.454019	0.440422	-0.009525	1.644910
52.716447	533.465160	0.445427	-0.009608	1.650375
52.989850	539.488007	0.450432	-0.009661	1.655781
53.442348	545.508549	0.455437	-0.009747	1.661224
53.577393	551.549321	0.460442	-0.009774	1.666569
53.917930	557.542882	0.465446	-0.009840	1.671918
54.325012	563.542833	0.470451	-0.009917	1.677276
54.661703	569.579907	0.475456	-0.009982	1.682628
55.107424	575.569313	0.480461	-0.010067	1.687955
55.362783	581.625980	0.485466	-0.010117	1.693265
55.601588	587.642703	0.490470	-0.010163	1.698519
55.863044	593.647469	0.495475	-0.010214	1.703753
56.121554	599.660428	0.500480	-0.010264	1.708977
56.654207	605.629964	0.505485	-0.010365	1.714231
57.171424	611.663716	0.510490	-0.010463	1.719518
57.528591	617.685948	0.515494	-0.010532	1.724731
57.868919	623.714902	0.520499	-0.010597	1.729930
58.444545	629.685610	0.525504	-0.010707	1.735133
58.844899	635.738184	0.530509	-0.010783	1.740337
59.563332	641.709559	0.535514	-0.010920	1.745552
59.743615	647.785401	0.540518	-0.010955	1.750680
60.106764	653.800444	0.545523	-0.011025	1.755796
60.220437	659.830573	0.550528	-0.011048	1.760837
60.561990	665.829891	0.555533	-0.011113	1.765904
60.835425	671.834070	0.560538	-0.011166	1.770941
61.273105	677.861545	0.565542	-0.011250	1.776030
61.279813	683.905794	0.570547	-0.011252	1.780994
61.667516	689.867267	0.575552	-0.011326	1.785986
61.807512	695.916385	0.580557	-0.011354	1.790965
62.291151	701.907580	0.585562	-0.011446	1.795980
62.650442	707.896119	0.590566	-0.011515	1.800944
62.881082	713.966327	0.595571	-0.011560	1.805924
63.053114	719.960822	0.600576	-0.011594	1.810813
63.480790	725.964558	0.605581	-0.011676	1.815768
63.742252	731.979239	0.610586	-0.011726	1.820671
64.129455	737.994502	0.615590	-0.011800	1.825596
64.383757	744.021789	0.620595	-0.011850	1.830481
64.698952	750.028770	0.625600	-0.011910	1.835354
64.916208	756.036668	0.630605	-0.011952	1.840187
65.228860	762.074357	0.635610	-0.012013	1.845057
65.491981	768.053276	0.640614	-0.012063	1.849855
65.903856	774.093246	0.645619	-0.012142	1.854728
66.062803	780.103597	0.650624	-0.012174	1.859497
66.336274	786.123842	0.655629	-0.012226	1.864292
66.516990	792.142004	0.660634	-0.012262	1.869048
66.881067	798.124045	0.665638	-0.012332	1.873814
67.208030	804.147704	0.670643	-0.012394	1.878589
67.753099	810.120663	0.675648	-0.012498	1.883372
68.135876	816.165161	0.680653	-0.012571	1.888154
68.375545	822.209695	0.685658	-0.012618	1.892886
68.636622	828.195675	0.690662	-0.012668	1.897567
68.898143	834.234427	0.695667	-0.012719	1.902277
69.068816	840.234071	0.700672	-0.012752	1.906921
69.460368	846.229131	0.705677	-0.012827	1.911608
69.755641	852.252391	0.710682	-0.012884	1.916280
70.253755	858.257336	0.715686	-0.012979	1.920980
70.265204	864.298953	0.720691	-0.012983	1.925569
70.579060	870.306264	0.725696	-0.013043	1.930200
70.741384	876.318829	0.730701	-0.013075	1.934784
71.057926	882.339075	0.735706	-0.013136	1.939403
71.090957	888.353558	0.740710	-0.013144	1.943933
71.458809	894.336261	0.745715	-0.013214	1.948516
71.506990	900.389337	0.750720	-0.013225	1.953058
71.982321	906.362175	0.755725	-0.013316	1.957639
71.992111	912.395482	0.760730	-0.013319	1.962135
72.424261	918.392977	0.765734	-0.013401	1.966702
72.654199	924.389510	0.770739	-0.013446	1.971207
72.995581	930.439665	0.775744	-0.013512	1.975769
73.373399	936.410770	0.780749	-0.013584	1.980271
73.598445	942.460039	0.785754	-0.013628	1.984782
73.795804	948.454967	0.790758	-0.013666	1.989235
73.940525	954.504001	0.795763	-0.013695	1.993705
74.208411	960.486702	0.800768	-0.013747	1.998148
74.426563	966.504990	0.805773	-0.013789	2.002594
74.605897	972.516497	0.810778	-0.013824	2.007015
74.890414	978.523928	0.815782	-0.013879	2.011450
75.002666	984.552600	0.820787	-0.013902	2.015848
75.255542	990.557454	0.825792	-0.013951	2.020254
75.594060	996.532320	0.830797	-0.014016	2.024650
75.938918	1002.558731	0.835802	-0.014082	2.029074
76.410128	1008.551793	0.840806	-0.014172	2.033496
76.898587	1014.579761	0.845811	-0.014265	2.037938
76.976539	1020.605601	0.850816	-0.014281	2.042268
77.241286	1026.632445	0.855821	-0.014332	2.046635
77.570876	1032.615668	0.860826	-0.014395	2.050977
77.793083	1038.648749	0.865830	-0.014439	2.055320
77.857370	1044.676606	0.870835	-0.014452	2.059611
78.237230	1050.652000	0.875840	-0.014525	2.063933
78.282599	1056.688714	0.880845	-0.014535	2.068208
79.115181	1062.615503	0.885850	-0.014693	2.072586
79.703598	1068.658739	0.890854	-0.014805	2.076977
80.069323	1074.697594	0.895859	-0.014875	2.081304
80.331934	1080.732453	0.900864	-0.014925	2.085593
80.670393	1086.712895	0.905869	-0.014990	2.089854
80.856675	1092.753293	0.910874	-0.015027	2.094112
81.112486	1098.775177	0.915878	-0.015076	2.098365
81.324289	1104.763516	0.920883	-0.015118	2.102576
81.685952	1110.786963	0.925888	-0.015187	2.106837
81.731859	1116.795154	0.930893	-0.015197	2.111005
82.026004	1122.805633	0.935898	-0.015254	2.115225
82.200296	1128.806411	0.940902	-0.015288	2.119402
82.390883	1134.840493	0.945907	-0.015325	2.123597
82.636885	1140.829035	0.950912	-0.015373	2.127765
82.964707	1146.856412	0.955917	-0.015436	2.131971
83.017273	1152.891449	0.960922	-0.015447	2.136110
83.303471	1158.852017	0.965926	-0.015502	2.140244
83.452780	1164.881380	0.970931	-0.015532	2.144385
83.917898	1170.861960	0.975936	-0.015621	2.148558
84.266102	1176.889446	0.980941	-0.015687	2.152727
84.515270	1182.930732	0.985946	-0.015736	2.156875
84.733016	1188.927208	0.990950	-0.015778	2.160978
85.082426	1194.927084	0.995955	-0.015845	2.165105
85.114100	1200.960066	1.000960	-0.015853	2.169174
85.449538	1206.963824	1.005965	-0.015917	2.173285
85.589959	1212.976136	1.010970	-0.015945	2.177350
85.860413	1218.997885	1.015974	-0.015997	2.181442
86.041368	1224.987622	1.020979	-0.016032	2.185486
86.344035	1230.977736	1.025984	-0.016091	2.189549
86.526670	1237.014154	1.030989	-0.016127	2.193609
86.922834	1243.016161	1.035994	-0.016202	2.197686
87.121656	1249.029906	1.040998	-0.016241	2.201719
87.376989	1255.069436	1.046003	-0.016291	2.205775
87.497549	1261.042063	1.051008	-0.016315	2.209749
87.756263	1267.075215	1.056013	-0.016365	2.213786
87.972263	1273.083380	1.061018	-0.016407	2.217790
88.127647	1279.114561	1.066022	-0.016437	2.221788
88.232482	1285.109359	1.071027	-0.016458	2.225745
88.485258	1291.111521	1.076032	-0.016507	2.229731
88.635035	1297.121066	1.081037	-0.016537	2.233693
89.102718	1303.112368	1.086042	-0.016626	2.237705
89.206856	1309.138079	1.091046	-0.016647	2.241653
89.477553	1315.157636	1.096051	-0.016700	2.245626
89.678132	1321.170322	1.101056	-0.016739	2.249573
89.888614	1327.183940	1.106061	-0.016780	2.253515
90.026569	1333.213356	1.111066	-0.016807	2.257445
90.240512	1339.194961	1.116070	-0.016849	2.261354
90.500460	1345.184888	1.121075	-0.016899	2.265271
90.606705	1351.238963	1.126080	-0.016920	2.269189
90.827188	1357.214065	1.131085	-0.016963	2.273075
91.267687	1363.213459	1.136090	-0.017047	2.277016
91.269956	1369.272537	1.141094	-0.017049	2.280895
91.611114	1375.256335	1.146099	-0.017115	2.284792
91.640531	1381.260782	1.151104	-0.017122	2.288629
92.000797	1387.278941	1.156109	-0.017191	2.292538
92.175121	1393.309125	1.161114	-0.017225	2.296409
92.388674	1399.281019	1.166118	-0.017267	2.300245
92.531107	1405.305602	1.171123	-0.017295	2.304093
92.840884	1411.310676	1.176128	-0.017354	2.307956
93.071733	1417.326225	1.181133	-0.017399	2.311804
93.232334	1423.373738	1.186138	-0.017431	2.315651
93.205659	1429.345424	1.191142	-0.017427	2.319404
93.570300	1435.343664	1.196147	-0.017497	2.323250
93.619223	1441.390666	1.201152	-0.017508	2.327054
93.914636	1447.386712	1.206157	-0.017565	2.330871
94.218995	1453.375151	1.211162	-0.017623	2.334678
94.491609	1459.385598	1.216166	-0.017676	2.338487
94.667486	1465.410887	1.221171	-0.017711	2.342279
94.814116	1471.441918	1.226176	-0.017740	2.346062
95.179126	1477.391303	1.231181	-0.017810	2.349833
95.327191	1483.462238	1.236186	-0.017839	2.353629
95.497354	1489.429634	1.241190	-0.017872	2.357360
95.829233	1495.471203	1.246195	-0.017936	2.361163
95.852949	1501.486381	1.251200	-0.017942	2.364881
96.120925	1507.465046	1.256205	-0.017994	2.368620
96.180695	1513.498119	1.261210	-0.018006	2.372345
96.536944	1519.511594	1.266214	-0.018075	2.376111
96.565752	1525.494837	1.271219	-0.018082	2.379788
96.889004	1531.527814	1.276224	-0.018144	2.383548
97.024758	1537.516034	1.281229	-0.018171	2.387237
97.350698	1543.541928	1.286234	-0.018233	2.390981
97.376145	1549.565183	1.291238	-0.018240	2.394658
97.762949	1555.523395	1.296243	-0.018314	2.398362
97.818173	1561.588500	1.301248	-0.018326	2.402058
98.077701	1567.580522	1.306253	-0.018376	2.405746
98.275583	1573.573209	1.311258	-0.018414	2.409416
98.563376	1579.605752	1.316262	-0.018470	2.413122
99.017936	1585.568298	1.321267	-0.018557	2.416813
99.335555	1591.619451	1.326272	-0.018618	2.420525
99.468891	1597.618297	1.331277	-0.018644	2.424163
99.745584	1603.630477	1.336282	-0.018698	2.427832
99.916516	1609.630735	1.341286	-0.018731	2.431468
100.246564	1615.670669	1.346291	-0.018795	2.435153
100.259078	1621.663861	1.351296	-0.018798	2.438742
100.598132	1627.656153	1.356301	-0.018864	2.442389
100.782369	1633.680512	1.361306	-0.018900	2.446020
101.133199	1639.683180	1.366310	-0.018967	2.449665
101.434618	1645.702977	1.371315	-0.019025	2.453304
101.650997	1651.705125	1.376320	-0.019067	2.456912
101.802806	1657.726944	1.381325	-0.019097	2.460513
102.116189	1663.717976	1.386330	-0.019157	2.464122
102.221169	1669.740682	1.391334	-0.019179	2.467704
102.456436	1675.752502	1.396339	-0.019224	2.471300
102.615981	1681.777384	1.401344	-0.019256	2.474884
102.890901	1687.744079	1.406349	-0.019309	2.478450
102.987208	1693.778683	1.411354	-0.019328	2.482017
103.224471	1699.794299	1.416358	-0.019374	2.485594
103.569075	1705.777425	1.421363	-0.019440	2.489167
103.991211	1711.793474	1.426368	-0.019521	2.492770
104.081429	1717.817753	1.431373	-0.019540	2.496309
104.165224	1723.858076	1.436378	-0.019557	2.499851
104.327325	1729.822027	1.441382	-0.019589	2.503358
104.556841	1735.838210	1.446387	-0.019633	2.506904
104.854426	1741.832830	1.451392	-0.019691	2.510444
105.209520	1747.869830	1.456397	-0.019759	2.514015
105.341116	1753.856657	1.461402	-0.019785	2.517510
105.632440	1759.877970	1.466406	-0.019841	2.521050
105.785277	1765.908991	1.471411	-0.019871	2.524565
106.013380	1771.886732	1.476416	-0.019915	2.528058
106.224481	1777.904391	1.481421	-0.019957	2.531566
106.400806	1783.945522	1.486426	-0.019991	2.535076
106.526693	1789.909718	1.491430	-0.020016	2.538528
106.726026	1795.930407	1.496435	-0.020055	2.542021
107.019286	1801.932690	1.501440	-0.020112	2.545516
107.132812	1807.975383	1.506445	-0.020134	2.548996
107.224830	1813.974837	1.511450	-0.020153	2.552443
107.322880	1819.974248	1.516454	-0.020173	2.555887
107.510738	1825.983227	1.521459	-0.020210	2.559347
107.807282	1831.998374	1.526464	-0.020267	2.562826
107.986359	1837.993256	1.531469	-0.020302	2.566267
108.278850	1844.011530	1.536474	-0.020358	2.569738
108.353958	1850.024653	1.541478	-0.020374	2.573162
108.783301	1856.075953	1.546483	-0.020456	2.576666
108.761365	1862.061832	1.551488	-0.020453	2.580048
108.964414	1868.030286	1.556493	-0.020493	2.583455
109.299858	1874.024401	1.561498	-0.020557	2.586897
109.558356	1880.073436	1.566502	-0.020607	2.590351
109.758930	1886.069764	1.571507	-0.020646	2.593760
110.018735	1892.074191	1.576512	-0.020697	2.597180
110.139160	1898.089564	1.581517	-0.020721	2.600576
110.414616	1904.103201	1.586522	-0.020774	2.603995
110.634008	1910.098372	1.591526	-0.020817	2.607389
110.820783	1916.120257	1.596531	-0.020853	2.610787
111.336079	1922.087571	1.601536	-0.020951	2.614209
111.810936	1928.105056	1.606541	-0.021042	2.617647
111.951966	1934.148243	1.611546	-0.021070	2.621036
112.173934	1940.156290	1.616550	-0.021113	2.624416
112.321996	1946.140789	1.621555	-0.021142	2.627764
112.505600	1952.182059	1.626560	-0.021178	2.631147
112.614988	1958.208179	1.631565	-0.021200	2.634503
112.916021	1964.160845	1.636570	-0.021258	2.637848
113.141468	1970.202011	1.641574	-0.021302	2.641225
113.204900	1976.232600	1.646579	-0.021315	2.644563
113.413333	1982.203526	1.651584	-0.021356	2.647889
113.588878	1988.234213	1.656589	-0.021390	2.651238
113.823168	1994.232808	1.661594	-0.021436	2.654575
113.917807	2000.255828	1.666598	-0.021455	2.657898
114.072037	2006.245450	1.671603	-0.021486	2.661208
114.223879	2012.271349	1.676608	-0.021516	2.664534
114.341677	2018.268185	1.681613	-0.021539	2.667833
114.700138	2024.260873	1.686618	-0.021608	2.671168
114.822132	2030.308748	1.691622	-0.021632	2.674488
114.840650	2036.303283	1.696627	-0.021637	2.677757
115.264799	2042.261549	1.701632	-0.021718	2.681072
115.446128	2048.341669	1.706637	-0.021754	2.684407
115.583333	2054.309227	1.711642	-0.021781	2.687669
115.810045	2060.336729	1.716646	-0.021825	2.690976
115.905640	2066.364446	1.721651	-0.021844	2.694255
116.101955	2072.328158	1.726656	-0.021883	2.697514
116.353521	2078.345532	1.731661	-0.021932	2.700807
116.551386	2084.375655	1.736666	-0.021970	2.704093
116.790240	2090.362743	1.741670	-0.022016	2.707359
117.044753	2096.383098	1.746675	-0.022066	2.710642
117.380453	2102.375674	1.751680	-0.022130	2.713920
117.478514	2108.415631	1.756685	-0.022150	2.717179
117.612835	2114.391581	1.761690	-0.022177	2.720406
117.965303	2120.433799	1.766694	-0.022244	2.723701
118.135634	2126.406655	1.771699	-0.022278	2.726924
118.251828	2132.446837	1.776704	-0.022301	2.730171
118.615787	2138.439337	1.781709	-0.022371	2.733429
118.704606	2144.459867	1.786714	-0.022389	2.736653
118.788443	2150.453902	1.791718	-0.022406	2.739858
118.858086	2156.505837	1.796723	-0.022421	2.743088
119.201195	2162.429341	1.801728	-0.022487	2.746291
119.501523	2168.502835	1.806733	-0.022545	2.749562
119.640450	2174.485338	1.811738	-0.022572	2.752755
119.870904	2180.514342	1.816742	-0.022617	2.755984
120.090919	2186.494722	1.821747	-0.022660	2.759181
120.338190	2192.516922	1.826752	-0.022707	2.762402
120.708305	2198.503503	1.831757	-0.022778	2.765619
120.896394	2204.563782	1.836762	-0.022815	2.768843
121.149945	2210.524896	1.841766	-0.022864	2.772021
121.291953	2216.566177	1.846771	-0.022892	2.775219
121.342859	2222.573677	1.851776	-0.022903	2.778381
121.724586	2228.557263	1.856781	-0.022977	2.781580
121.848392	2234.562089	1.861786	-0.023001	2.784745
122.120539	2240.605639	1.866790	-0.023054	2.787951
122.060783	2246.626670	1.871795	-0.023044	2.791088
122.211584	2252.604433	1.876800	-0.023074	2.794232
122.354470	2258.620828	1.881805	-0.023102	2.797392
122.547864	2264.611160	1.886810	-0.023140	2.800543
122.676121	2270.650649	1.891814	-0.023165	2.803705
122.938507	2276.634704	1.896819	-0.023216	2.806856
123.015216	2282.651501	1.901824	-0.023232	2.809991
123.323844	2288.670617	1.906829	-0.023291	2.813161
123.391600	2294.665816	1.911834	-0.023306	2.816276
123.641697	2300.663607	1.916838	-0.023354	2.819419
123.626759	2306.715184	1.921843	-0.023353	2.822543
123.900247	2312.668589	1.926848	-0.023406	2.825659
124.182659	2318.695686	1.931853	-0.023460	2.828811
124.362129	2324.727287	1.936858	-0.023495	2.831946
124.466880	2330.692035	1.941862	-0.023516	2.835031
124.821336	2336.733979	1.946867	-0.023584	2.838191
124.810658	2342.729134	1.951872	-0.023584	2.841267
124.998955	2348.750318	1.956877	-0.023621	2.844383
125.455658	2354.704687	1.961882	-0.023708	2.847504
125.848313	2360.759959	1.966886	-0.023783	2.850663
126.035154	2366.760991	1.971891	-0.023820	2.853759
126.128130	2372.783857	1.976896	-0.023838	2.856848
126.177277	2378.794209	1.981901	-0.023849	2.859921
126.465232	2384.797704	1.986906	-0.023905	2.863023
126.724862	2390.781540	1.991910	-0.023955	2.866108
