Fri Jan 13 17:27:19 2023

Number of Points = 3000
Depth (nm)	Load (µN)	Time (s)	Depth (V)	Load (V)
-12.473158	-0.074734	0.000000	-0.147980	1.394311
0.000000	3.175728	0.005005	-0.150321	1.402250
7.663290	9.071774	0.010010	-0.151760	1.411064
11.796120	15.739862	0.015014	-0.152537	1.419316
14.190393	22.063946	0.020019	-0.152988	1.426545
16.050136	28.250106	0.025024	-0.153339	1.433407
17.272982	34.369435	0.030029	-0.153570	1.439941
18.697062	40.398393	0.035034	-0.153838	1.446428
19.783155	46.444025	0.040038	-0.154044	1.452782
20.948998	52.497395	0.045043	-0.154264	1.459144
21.812975	58.540295	0.050048	-0.154428	1.465361
22.946869	64.533218	0.055053	-0.154642	1.471598
23.604877	70.628665	0.060058	-0.154767	1.477742
24.499292	76.615770	0.065062	-0.154936	1.483837
25.139403	82.680626	0.070067	-0.155058	1.489895
25.952448	88.666309	0.075072	-0.155212	1.495911
26.626102	94.725670	0.080077	-0.155340	1.501926
27.467329	100.710923	0.085082	-0.155499	1.507903
28.185373	106.741049	0.090086	-0.155635	1.513856
29.020887	112.760824	0.095091	-0.155793	1.519817
29.593340	118.795684	0.100096	-0.155902	1.525679
30.273182	124.816063	0.105101	-0.156031	1.531541
30.830219	130.870487	0.110106	-0.156137	1.537372
31.463977	136.863896	0.115110	-0.156258	1.543149
32.158960	142.875738	0.120115	-0.156390	1.548941
32.620373	148.934834	0.125120	-0.156478	1.554679
33.446893	154.874549	0.130125	-0.156634	1.560405
33.919114	160.978366	0.135130	-0.156725	1.566145
34.482629	166.970128	0.140134	-0.156832	1.571791
35.168154	172.978295	0.145139	-0.156962	1.577471
35.534330	179.024374	0.150144	-0.157032	1.583062
36.169364	185.035669	0.155149	-0.157153	1.588688
36.587721	191.058798	0.160154	-0.157233	1.594236
37.085283	197.068637	0.165158	-0.157328	1.599777
37.525846	203.088464	0.170163	-0.157412	1.605290
38.155790	209.095877	0.175168	-0.157531	1.610833
38.728639	215.106776	0.180173	-0.157640	1.616341
39.155199	221.178385	0.185178	-0.157722	1.621839
39.628316	227.154782	0.190182	-0.157812	1.627248
40.212513	233.155569	0.195187	-0.157923	1.632696
40.702179	239.199863	0.200192	-0.158017	1.638134
41.221064	245.206045	0.205197	-0.158116	1.643529
41.772143	251.204810	0.210202	-0.158220	1.648911
42.290660	257.253394	0.215206	-0.158319	1.654307
42.568472	263.279517	0.220211	-0.158373	1.659594
42.997144	269.287245	0.225216	-0.158455	1.664893
43.375637	275.298199	0.230221	-0.158527	1.670163
43.912205	281.300709	0.235226	-0.158629	1.675457
44.338166	287.314129	0.240230	-0.158711	1.680710
45.025962	293.335273	0.245235	-0.158841	1.686032
45.457439	299.344753	0.250240	-0.158924	1.691250
45.800355	305.404800	0.255245	-0.158990	1.696468
46.314823	311.369737	0.260250	-0.159088	1.701641
46.964031	317.396502	0.265254	-0.159211	1.706890
47.131963	323.433944	0.270259	-0.159244	1.711990
47.701239	329.433804	0.275264	-0.159352	1.717161
47.905374	335.499659	0.280269	-0.159392	1.722265
48.270438	341.482957	0.285274	-0.159462	1.727332
48.620403	347.481122	0.290278	-0.159529	1.732392
49.196310	353.498814	0.295283	-0.159639	1.737519
49.483489	359.518796	0.300288	-0.159694	1.742549
49.900006	365.557579	0.305293	-0.159774	1.747617
50.232732	371.538405	0.310298	-0.159838	1.752599
50.842391	377.550597	0.315302	-0.159954	1.757671
51.212195	383.566438	0.320307	-0.160024	1.762663
51.751073	389.591032	0.325312	-0.160127	1.767696
51.939334	395.629792	0.330317	-0.160164	1.772627
52.329567	401.648773	0.335322	-0.160239	1.777585
52.749344	407.620458	0.340326	-0.160319	1.782500
52.988120	413.676888	0.345331	-0.160365	1.787418
53.377615	419.664038	0.350336	-0.160440	1.792309
53.879665	425.661932	0.355341	-0.160535	1.797227
54.171448	431.699687	0.360346	-0.160592	1.802105
54.602386	437.724012	0.365350	-0.160674	1.806997
54.899052	443.725565	0.370355	-0.160731	1.811821
55.355273	449.739883	0.375360	-0.160818	1.816686
55.660558	455.750866	0.380365	-0.160877	1.821494
55.999569	461.775556	0.385370	-0.160942	1.826309
56.299097	467.775728	0.390374	-0.161000	1.831081
56.795079	473.800805	0.395379	-0.161094	1.835914
57.072229	479.816531	0.400384	-0.161148	1.840667
57.521920	485.814216	0.405389	-0.161234	1.845441
57.838519	491.841065	0.410394	-0.161295	1.850189
58.416756	497.827024	0.415398	-0.161405	1.854963
58.612428	503.883429	0.420403	-0.161443	1.859677
59.023246	509.867419	0.425408	-0.161521	1.864380
59.277472	515.917407	0.430413	-0.161571	1.869081
59.691552	521.911610	0.435418	-0.161650	1.873770
60.024397	527.920530	0.440422	-0.161714	1.878436
60.367264	533.938858	0.445427	-0.161780	1.883101
60.538097	539.984818	0.450432	-0.161813	1.887729
60.928660	545.950643	0.455437	-0.161888	1.892344
61.308284	551.971525	0.460442	-0.161961	1.896985
61.807781	557.973679	0.465446	-0.162056	1.901633
61.939100	564.017873	0.470451	-0.162082	1.906205
62.457619	569.985698	0.475456	-0.162181	1.910809
62.733411	576.045544	0.480461	-0.162234	1.915407
63.231611	582.044868	0.485466	-0.162329	1.920007
63.327655	588.066788	0.490470	-0.162348	1.924510
63.854596	594.036051	0.495475	-0.162449	1.929073
64.085968	600.108075	0.500480	-0.162494	1.933626
64.540036	606.098582	0.505485	-0.162580	1.938164
64.680290	612.109950	0.510490	-0.162608	1.942628
65.028922	618.133423	0.515494	-0.162675	1.947143
65.170490	624.133504	0.520499	-0.162703	1.951578
65.522250	630.150620	0.525504	-0.162771	1.956068
65.867641	636.147745	0.530509	-0.162837	1.960532
66.332979	642.148461	0.535514	-0.162926	1.965018
66.559141	648.188862	0.540518	-0.162970	1.969463
67.026154	654.180656	0.545523	-0.163059	1.973922
67.263010	660.234042	0.550528	-0.163105	1.978359
67.502190	666.221227	0.555533	-0.163151	1.982739
67.920814	672.199340	0.560538	-0.163231	1.987146
68.596399	678.214214	0.565542	-0.163359	1.991633
68.692650	684.276251	0.570547	-0.163379	1.996002
68.880177	690.279841	0.575552	-0.163416	2.000342
69.175719	696.266998	0.580557	-0.163473	2.004687
69.664896	702.287584	0.585562	-0.163566	2.009094
69.876885	708.311620	0.590566	-0.163607	2.013426
70.236371	714.344605	0.595571	-0.163676	2.017790
70.404858	720.316574	0.600576	-0.163709	2.022056
70.804459	726.329252	0.605581	-0.163786	2.026397
71.065145	732.330703	0.610586	-0.163836	2.030688
71.543860	738.359357	0.615590	-0.163927	2.035041
71.719396	744.387656	0.620595	-0.163962	2.039311
72.000809	750.403255	0.625600	-0.164016	2.043589
72.108463	756.414330	0.630605	-0.164038	2.047814
72.481266	762.402517	0.635610	-0.164109	2.052077
72.873175	768.412554	0.640614	-0.164184	2.056350
73.116876	774.440801	0.645619	-0.164231	2.060593
73.187959	780.465418	0.650624	-0.164246	2.064783
73.645022	786.432679	0.655629	-0.164334	2.069016
74.033693	792.453709	0.660634	-0.164408	2.073261
74.345154	798.512281	0.665638	-0.164468	2.077505
74.378842	804.506408	0.670643	-0.164476	2.081632
74.738546	810.492556	0.675648	-0.164545	2.085821
75.030826	816.508436	0.680653	-0.164601	2.090006
75.470993	822.512963	0.685658	-0.164685	2.094208
75.653228	828.547502	0.690662	-0.164721	2.098364
75.980901	834.534711	0.695667	-0.164784	2.102512
76.388922	840.550205	0.700672	-0.164862	2.106690
76.711065	846.551924	0.705677	-0.164924	2.110830
76.907426	852.598712	0.710682	-0.164962	2.114964
77.261927	858.587762	0.715686	-0.165030	2.119087
77.480369	864.607315	0.720691	-0.165073	2.123192
77.853029	870.625821	0.725696	-0.165144	2.127322
77.864314	876.653968	0.730701	-0.165148	2.131370
78.400111	882.610368	0.735706	-0.165250	2.135480
78.663575	888.634387	0.740710	-0.165301	2.139566
79.061516	894.644165	0.745715	-0.165377	2.143665
79.284935	900.675212	0.750720	-0.165420	2.147730
79.542579	906.696298	0.755725	-0.165470	2.151790
79.796203	912.690783	0.760730	-0.165519	2.155823
80.238165	918.674827	0.765734	-0.165603	2.159883
80.551309	924.719442	0.770739	-0.165664	2.163947
80.738859	930.745348	0.775744	-0.165700	2.167963
80.922589	936.749715	0.780749	-0.165736	2.171957
81.220499	942.754643	0.785754	-0.165794	2.175969
81.416203	948.747273	0.790758	-0.165832	2.179943
81.644506	954.780681	0.795763	-0.165876	2.183944
81.956581	960.768901	0.800768	-0.165936	2.187926
82.122579	966.813804	0.805773	-0.165969	2.191905
82.410443	972.787862	0.810778	-0.166024	2.195858
82.740787	978.800109	0.815782	-0.166088	2.199838
82.897020	984.838569	0.820787	-0.166119	2.203790
83.389974	990.794001	0.825792	-0.166213	2.207754
83.715168	996.847715	0.830797	-0.166275	2.211737
84.008693	1002.865824	0.835802	-0.166332	2.215684
84.151468	1008.857847	0.840806	-0.166360	2.219575
84.360433	1014.888280	0.845811	-0.166401	2.223498
84.502888	1020.886462	0.850816	-0.166429	2.227378
84.807966	1026.896969	0.855821	-0.166488	2.231295
85.090256	1032.917832	0.860826	-0.166542	2.235206
85.484293	1038.891319	0.865830	-0.166618	2.239104
85.613373	1044.938342	0.870835	-0.166643	2.242986
85.795536	1050.947888	0.875840	-0.166679	2.246849
86.219716	1056.931895	0.880845	-0.166760	2.250739
86.644063	1062.947527	0.885850	-0.166841	2.254643
86.964402	1068.976860	0.890854	-0.166903	2.258527
87.195257	1074.967398	0.895859	-0.166948	2.262361
87.300720	1081.022961	0.900864	-0.166969	2.266203
87.776644	1086.961045	0.905869	-0.167060	2.270042
87.898017	1093.016484	0.910874	-0.167084	2.273875
88.221308	1099.015467	0.915878	-0.167146	2.277707
88.161441	1105.061490	0.920883	-0.167136	2.281483
88.605285	1111.037962	0.925888	-0.167221	2.285314
88.850067	1117.034053	0.930893	-0.167268	2.289109
89.151466	1123.074245	0.935898	-0.167326	2.292937
89.242944	1129.089383	0.940902	-0.167345	2.296699
89.638259	1135.040423	0.945907	-0.167421	2.300479
89.857684	1141.103128	0.950912	-0.167463	2.304285
89.971634	1147.110151	0.955917	-0.167486	2.308028
90.151398	1153.125820	0.960922	-0.167522	2.311785
90.442248	1159.121703	0.965926	-0.167578	2.315545
90.644171	1165.130220	0.970931	-0.167617	2.319290
90.855774	1171.132237	0.975936	-0.167658	2.323026
91.206916	1177.145033	0.980941	-0.167726	2.326790
91.482028	1183.168136	0.985946	-0.167779	2.330540
91.592934	1189.196148	0.990950	-0.167801	2.334254
91.808532	1195.165263	0.995955	-0.167843	2.337946
92.053482	1201.192466	1.000960	-0.167890	2.341675
92.392982	1207.200797	1.005965	-0.167956	2.345404
92.790654	1213.178096	1.010970	-0.168032	2.349120
92.882793	1219.243651	1.015974	-0.168050	2.352824
92.970243	1225.237699	1.020979	-0.168068	2.356477
93.420729	1231.223989	1.025984	-0.168154	2.360191
93.714256	1237.240926	1.030989	-0.168211	2.363887
93.819247	1243.259534	1.035994	-0.168232	2.367541
94.046640	1249.273980	1.040998	-0.168276	2.371212
94.425135	1255.283382	1.046003	-0.168349	2.374903
94.595252	1261.281277	1.051008	-0.168382	2.378540
94.897326	1267.282426	1.056013	-0.168440	2.382200
95.353704	1273.295167	1.061018	-0.168527	2.385891
95.617903	1279.314140	1.066022	-0.168579	2.389542
95.691265	1285.345833	1.071027	-0.168594	2.393158
95.884453	1291.354253	1.076032	-0.168632	2.396779
95.894508	1297.368793	1.081037	-0.168635	2.400362
96.207330	1303.342216	1.086042	-0.168695	2.403973
96.462911	1309.350325	1.091046	-0.168745	2.407589
96.805390	1315.387413	1.096051	-0.168810	2.411233
97.020223	1321.384294	1.101056	-0.168852	2.414824
97.291823	1327.389298	1.106061	-0.168905	2.418424
97.517779	1333.388889	1.111066	-0.168948	2.422007
97.694975	1339.459759	1.116070	-0.168983	2.425618
97.819931	1345.400874	1.121075	-0.169008	2.429137
98.272246	1351.419384	1.126080	-0.169094	2.432759
98.551868	1357.413385	1.131085	-0.169148	2.436327
98.591681	1363.493996	1.136090	-0.169157	2.439896
98.887687	1369.444058	1.141094	-0.169214	2.443432
99.318278	1375.455767	1.146099	-0.169297	2.447024
99.417739	1381.488806	1.151104	-0.169317	2.450561
99.837430	1387.486250	1.156109	-0.169397	2.454132
100.069447	1393.463603	1.161114	-0.169442	2.457651
100.599213	1399.498136	1.166118	-0.169543	2.461254
100.757946	1405.532772	1.171123	-0.169574	2.464782
100.919144	1411.511972	1.176128	-0.169606	2.468274
101.083273	1417.555026	1.181133	-0.169638	2.471797
101.476877	1423.541883	1.186138	-0.169714	2.475327
101.473216	1429.548089	1.191142	-0.169714	2.478788
101.772745	1435.587020	1.196147	-0.169772	2.482320
101.989803	1441.552320	1.201152	-0.169814	2.485789
102.230675	1447.596847	1.206157	-0.169861	2.489303
102.390906	1453.599146	1.211162	-0.169893	2.492773
102.761413	1459.594291	1.216166	-0.169964	2.496272
102.852151	1465.618476	1.221171	-0.169982	2.499732
103.171281	1471.618618	1.226176	-0.170043	2.503215
103.466923	1477.608034	1.231181	-0.170100	2.506683
103.632912	1483.660128	1.236186	-0.170133	2.510158
103.836734	1489.647889	1.241190	-0.170173	2.513599
104.102944	1495.640006	1.246195	-0.170224	2.517049
104.178259	1501.688928	1.251200	-0.170240	2.520491
104.462979	1507.680889	1.256205	-0.170295	2.523935
104.725660	1513.668120	1.261210	-0.170346	2.527367
104.973318	1519.692006	1.266214	-0.170393	2.530812
105.383839	1525.703891	1.271219	-0.170472	2.534275
105.639223	1531.703886	1.276224	-0.170521	2.537699
105.775429	1537.709059	1.281229	-0.170548	2.541099
105.994569	1543.751867	1.286234	-0.170591	2.544531
106.166075	1549.721504	1.291238	-0.170625	2.547909
106.475274	1555.760797	1.296243	-0.170684	2.551346
106.643509	1561.765892	1.301248	-0.170717	2.554734
106.951230	1567.743110	1.306253	-0.170777	2.558127
106.998991	1573.789568	1.311258	-0.170787	2.561507
107.372492	1579.801128	1.316262	-0.170859	2.564922
107.420535	1585.791785	1.321267	-0.170869	2.568263
107.801013	1591.795829	1.326272	-0.170942	2.571665
107.905830	1597.867967	1.331277	-0.170963	2.575052
107.983189	1603.864692	1.336282	-0.170979	2.578388
108.034189	1609.820852	1.341286	-0.170990	2.581693
108.335806	1615.853125	1.346291	-0.171048	2.585079
108.580510	1621.830603	1.351296	-0.171096	2.588421
108.994692	1627.825836	1.356301	-0.171175	2.591797
109.209249	1633.874453	1.361306	-0.171217	2.595164
109.379456	1639.882590	1.366310	-0.171250	2.598496
109.576192	1645.881078	1.371315	-0.171288	2.601824
109.931309	1651.876401	1.376320	-0.171357	2.605173
110.128224	1657.896827	1.381325	-0.171395	2.608503
110.488614	1663.914649	1.386330	-0.171464	2.611857
110.659258	1669.907068	1.391334	-0.171498	2.615159
110.856477	1675.933743	1.396339	-0.171536	2.618481
110.778540	1681.961704	1.401344	-0.171523	2.621751
111.131819	1687.930849	1.406349	-0.171591	2.625060
111.388541	1693.941611	1.411354	-0.171640	2.628370
111.650020	1699.973029	1.416358	-0.171691	2.631689
111.777488	1705.980606	1.421363	-0.171716	2.634967
111.983154	1711.989652	1.426368	-0.171756	2.638255
112.234316	1717.958547	1.431373	-0.171805	2.641525
112.504168	1724.027491	1.436378	-0.171857	2.644849
112.641358	1729.995865	1.441382	-0.171884	2.648091
113.041578	1736.012705	1.446387	-0.171961	2.651400
112.928468	1742.058563	1.451392	-0.171941	2.654634
113.194200	1748.018639	1.456397	-0.171993	2.657881
113.398816	1754.035590	1.461402	-0.172032	2.661145
113.703851	1760.078189	1.466406	-0.172091	2.664435
113.976460	1766.028335	1.471411	-0.172144	2.667666
114.362319	1772.052142	1.476416	-0.172218	2.670952
114.447422	1778.091023	1.481421	-0.172235	2.674191
114.618883	1784.094511	1.486426	-0.172269	2.677422
114.735555	1790.087874	1.491430	-0.172292	2.680635
115.063374	1796.122449	1.496435	-0.172355	2.683900
115.064931	1802.115258	1.501440	-0.172357	2.687086
115.425559	1808.110400	1.506445	-0.172426	2.690328
115.578588	1814.133488	1.511450	-0.172456	2.693547
115.796851	1820.131195	1.516454	-0.172499	2.696759
116.034350	1826.130811	1.521459	-0.172545	2.699972
116.097170	1832.192050	1.526464	-0.172558	2.703184
116.417218	1838.126733	1.531469	-0.172620	2.706368
116.824773	1844.179546	1.536474	-0.172698	2.709625
116.886608	1850.198897	1.541478	-0.172711	2.712804
117.122881	1856.182514	1.546483	-0.172757	2.715989
117.201862	1862.211390	1.551488	-0.172773	2.719168
117.456309	1868.212639	1.556493	-0.172822	2.722357
117.612713	1874.199605	1.561498	-0.172853	2.725520
118.129898	1880.232939	1.566502	-0.172951	2.728761
118.243232	1886.233841	1.571507	-0.172974	2.731916
118.491440	1892.235340	1.576512	-0.173022	2.735089
118.391760	1898.270062	1.581517	-0.173005	2.738220
118.758543	1904.249651	1.586522	-0.173075	2.741394
118.955795	1910.252151	1.591526	-0.173114	2.744549
119.276131	1916.283808	1.596531	-0.173175	2.747735
119.539130	1922.266354	1.601536	-0.173226	2.750883
119.700554	1928.310143	1.606541	-0.173258	2.754042
119.878173	1934.296277	1.611546	-0.173293	2.757171
119.898088	1940.325827	1.616550	-0.173298	2.760293
119.994668	1946.335592	1.621555	-0.173318	2.763414
120.460047	1952.304710	1.626560	-0.173407	2.766569
120.703224	1958.335959	1.631565	-0.173454	2.769716
121.025771	1964.346805	1.636570	-0.173516	2.772863
120.879936	1970.368903	1.641574	-0.173490	2.775937
121.102794	1976.352470	1.646579	-0.173533	2.779047
121.374801	1982.364932	1.651584	-0.173586	2.782175
121.575481	1988.369050	1.656589	-0.173625	2.785285
121.679299	1994.410315	1.661594	-0.173646	2.788395
121.844848	2000.402226	1.666598	-0.173678	2.791486
121.827462	2006.407386	1.671603	-0.173676	2.794551
122.193186	2012.402246	1.676608	-0.173747	2.797668
122.433056	2018.417412	1.681613	-0.173793	2.800772
122.697041	2024.440625	1.686618	-0.173844	2.803880
122.851991	2030.426637	1.691622	-0.173875	2.806949
122.987222	2036.461597	1.696627	-0.173902	2.810036
123.137989	2042.465306	1.701632	-0.173931	2.813107
123.333895	2048.462516	1.706637	-0.173970	2.816178
123.612272	2054.454823	1.711642	-0.174023	2.819255
124.001255	2060.475107	1.716646	-0.174098	2.822361
123.939848	2066.506566	1.721651	-0.174088	2.825399
124.224145	2072.503585	1.726656	-0.174143	2.828470
124.409565	2078.488454	1.731661	-0.174179	2.831516
124.771730	2084.500557	1.736666	-0.174248	2.834600
124.896051	2090.529032	1.741670	-0.174273	2.837652
125.262290	2096.527877	1.746675	-0.174343	2.840722
125.363953	2102.547210	1.751680	-0.174364	2.843760
125.470703	2108.572745	1.756685	-0.174385	2.846798
125.657086	2114.536985	1.761690	-0.174422	2.849814
125.951816	2120.587174	1.766694	-0.174479	2.852886
126.172209	2126.547249	1.771699	-0.174521	2.855899
126.415069	2132.582019	1.776704	-0.174569	2.858949
126.479203	2138.593574	1.781709	-0.174582	2.861958
126.597205	2144.603348	1.786714	-0.174606	2.864970
126.827207	2150.610134	1.791718	-0.174650	2.867995
127.246578	2156.613300	1.796723	-0.174731	2.871043
127.409325	2162.601260	1.801728	-0.174763	2.874041
127.664774	2168.630548	1.806733	-0.174812	2.877071
127.714142	2174.641562	1.811738	-0.174823	2.880058
128.006082	2180.678438	1.816742	-0.174879	2.883091
128.141219	2186.627023	1.821747	-0.174906	2.886053
128.372093	2192.682562	1.826752	-0.174951	2.889080
128.555639	2198.668984	1.831757	-0.174987	2.892062
128.772406	2204.697316	1.836762	-0.175029	2.895066
128.787568	2210.703260	1.841766	-0.175033	2.898027
128.878650	2216.703329	1.846771	-0.175052	2.900993
129.119210	2222.668503	1.851776	-0.175098	2.903961
129.467386	2228.722121	1.856781	-0.175165	2.906985
129.685254	2234.704199	1.861786	-0.175207	2.909951
130.296057	2240.716822	1.866790	-0.175324	2.912987
130.281680	2246.726969	1.871795	-0.175322	2.915927
130.617521	2252.750670	1.876800	-0.175387	2.918922
130.787116	2258.749984	1.881805	-0.175420	2.921878
131.071107	2264.742365	1.886810	-0.175475	2.924844
131.254593	2270.774912	1.891814	-0.175511	2.927812
131.517549	2276.789297	1.896819	-0.175562	2.930779
131.479084	2282.771599	1.901824	-0.175556	2.933684
131.649659	2288.816271	1.906829	-0.175589	2.936647
131.844984	2294.781287	1.911834	-0.175628	2.939572
132.240692	2300.827819	1.916838	-0.175703	2.942562
132.363840	2306.799569	1.921843	-0.175728	2.945473
132.543868	2312.851333	1.926848	-0.175763	2.948429
132.742503	2318.829463	1.931853	-0.175802	2.951349
133.015887	2324.822421	1.936858	-0.175855	2.954283
133.521356	2330.830129	1.941862	-0.175951	2.957256
133.886823	2336.861852	1.946867	-0.176021	2.960216
133.986930	2342.878177	1.951872	-0.176041	2.963128
134.314411	2348.854376	1.956877	-0.176104	2.966051
134.321191	2354.907821	1.961882	-0.176107	2.968962
134.526975	2360.906223	1.966886	-0.176147	2.971872
134.640754	2366.885175	1.971891	-0.176170	2.974757
134.832313	2372.946006	1.976896	-0.176207	2.977689
135.046373	2378.897978	1.981901	-0.176249	2.980569
135.098713	2384.941581	1.986906	-0.176260	2.983468
