Fri Jan 13 17:27:19 2023

Number of Points = 3000
Depth (nm)	Load (µN)	Time (s)	Depth (V)	Load (V)
-19.138661	-1.112273	0.000000	-0.162379	1.421381
0.000000	2.131575	0.005005	-0.165971	1.431534
8.189194	9.029374	0.010010	-0.167509	1.441325
14.498461	15.384203	0.015014	-0.168695	1.449844
18.606994	21.826696	0.020019	-0.169467	1.457623
22.957241	27.842732	0.025024	-0.170285	1.465028
26.557122	34.001560	0.030029	-0.170962	1.472272
30.218933	40.038539	0.035034	-0.171651	1.479382
33.037953	46.202483	0.040038	-0.172181	1.486289
36.099284	52.196233	0.045043	-0.172757	1.493083
38.915794	58.292114	0.050048	-0.173287	1.499859
41.790809	64.261388	0.055053	-0.173828	1.506503
44.478786	70.359203	0.060058	-0.174334	1.513176
47.174708	76.347071	0.065062	-0.174841	1.519717
49.370025	82.493028	0.070067	-0.175255	1.526210
51.884551	88.430772	0.075072	-0.175728	1.532588
54.249757	94.519944	0.080077	-0.176173	1.539028
56.416545	100.535680	0.085082	-0.176581	1.545308
58.568823	106.593007	0.090086	-0.176987	1.551596
60.817586	112.584954	0.095091	-0.177410	1.557829
63.074013	118.600176	0.100096	-0.177835	1.564060
64.980751	124.674439	0.105101	-0.178194	1.570206
67.053845	130.689946	0.110106	-0.178585	1.576328
68.920491	136.727265	0.115110	-0.178936	1.582379
70.932755	142.739869	0.120115	-0.179316	1.588431
72.501615	148.827146	0.125120	-0.179611	1.594385
74.351919	154.798383	0.130125	-0.179960	1.600302
75.631135	160.911357	0.135130	-0.180202	1.606142
77.159888	166.895593	0.140134	-0.180490	1.611925
78.289689	172.995333	0.145139	-0.180703	1.617665
79.544098	178.994248	0.150144	-0.180940	1.623334
80.409913	185.062646	0.155149	-0.181104	1.628923
81.553817	191.035285	0.160154	-0.181320	1.634495
82.220663	197.131397	0.165158	-0.181447	1.640008
83.278163	203.095924	0.170163	-0.181647	1.645509
83.904401	209.152971	0.175168	-0.181766	1.650939
85.026048	215.127859	0.180173	-0.181978	1.656431
85.577890	221.219087	0.185178	-0.182083	1.661832
86.218463	227.209444	0.190182	-0.182205	1.667156
86.733539	233.265101	0.195187	-0.182303	1.672480
87.664917	239.216404	0.200192	-0.182479	1.677823
88.092416	245.285692	0.205197	-0.182561	1.683099
88.856196	251.291103	0.210202	-0.182706	1.688404
89.451511	257.298873	0.215206	-0.182819	1.693645
90.175753	263.321288	0.220211	-0.182956	1.698919
90.624521	269.348784	0.225216	-0.183042	1.704100
91.381659	275.344284	0.230221	-0.183185	1.709329
91.771250	281.377263	0.235226	-0.183260	1.714466
92.616568	287.374420	0.240230	-0.183420	1.719690
93.040364	293.413229	0.245235	-0.183501	1.724811
93.612490	299.420401	0.250240	-0.183610	1.729932
93.929057	305.471418	0.255245	-0.183671	1.735001
94.544580	311.452875	0.260250	-0.183788	1.740084
95.057735	317.467144	0.265254	-0.183886	1.745150
95.672896	323.486856	0.270259	-0.184002	1.750234
95.918237	329.532914	0.275264	-0.184050	1.755219
96.722647	335.482356	0.280269	-0.184202	1.760271
97.187194	341.530406	0.285274	-0.184291	1.765291
97.822017	347.543734	0.290278	-0.184412	1.770317
98.070057	353.593517	0.295283	-0.184460	1.775250
98.806344	359.550520	0.300288	-0.184599	1.780231
99.137031	365.618522	0.305293	-0.184663	1.785173
99.700975	371.600589	0.310298	-0.184770	1.790098
100.068205	377.636054	0.315302	-0.184841	1.794998
100.665208	383.625318	0.320307	-0.184954	1.799911
100.828050	389.698230	0.325312	-0.184986	1.804756
101.320353	395.674678	0.330317	-0.185080	1.809604
101.631865	401.694956	0.335322	-0.185140	1.814423
102.319141	407.676188	0.340326	-0.185270	1.819301
102.556854	413.750217	0.345331	-0.185317	1.824116
103.092332	419.711805	0.350336	-0.185418	1.828912
103.494005	425.730395	0.355341	-0.185495	1.833703
103.989130	431.774663	0.360346	-0.185590	1.838526
104.419541	437.764592	0.365350	-0.185672	1.843278
104.911158	443.788144	0.370355	-0.185766	1.848059
105.258980	449.795168	0.375360	-0.185832	1.852777
105.917823	455.809610	0.380365	-0.185958	1.857571
106.007399	461.847733	0.385370	-0.185976	1.862220
106.542318	467.838421	0.390374	-0.186078	1.866938
106.863614	473.851621	0.395379	-0.186140	1.871606
107.267347	479.884996	0.400384	-0.186217	1.876299
107.473956	485.889211	0.405389	-0.186257	1.880906
108.097990	491.882659	0.410394	-0.186376	1.885603
108.332727	497.926300	0.415398	-0.186421	1.890225
108.897515	503.899654	0.420403	-0.186529	1.894868
109.241862	509.939257	0.425408	-0.186595	1.899492
109.709266	515.950058	0.430413	-0.186684	1.904115
109.999875	521.971117	0.435418	-0.186740	1.908689
110.578767	527.972981	0.440422	-0.186850	1.913311
110.908253	534.005581	0.445427	-0.186913	1.917882
111.294982	540.000794	0.450432	-0.186987	1.922428
111.469082	546.053444	0.455437	-0.187022	1.926952
111.943522	552.011871	0.460442	-0.187112	1.931472
112.174279	558.077317	0.465446	-0.187157	1.935998
112.552085	564.057330	0.470451	-0.187229	1.940488
112.656736	570.097745	0.475456	-0.187250	1.944943
113.207289	576.062211	0.480461	-0.187355	1.949444
113.614888	582.082026	0.485466	-0.187433	1.953940
113.974198	588.130161	0.490470	-0.187502	1.958433
114.358484	594.085282	0.495475	-0.187576	1.962855
114.796288	600.146955	0.500480	-0.187659	1.967357
115.127497	606.134620	0.505485	-0.187723	1.971769
115.555449	612.176355	0.510490	-0.187805	1.976234
115.656813	618.185778	0.515494	-0.187825	1.980585
116.035323	624.183751	0.520499	-0.187898	1.984987
116.351616	630.206048	0.525504	-0.187959	1.989380
116.865436	636.188906	0.530509	-0.188056	1.993784
117.075741	642.228372	0.535514	-0.188097	1.998145
117.487412	648.235539	0.540518	-0.188176	2.002522
117.740679	654.264392	0.545523	-0.188225	2.006867
118.097677	660.252455	0.550528	-0.188294	2.011198
118.380499	666.264081	0.555533	-0.188348	2.015518
118.766665	672.292207	0.560538	-0.188422	2.019866
119.043992	678.291829	0.565542	-0.188476	2.024158
119.421673	684.287871	0.570547	-0.188548	2.028463
119.807843	690.312655	0.575552	-0.188622	2.032780
120.063474	696.362467	0.580557	-0.188671	2.037075
120.343331	702.335628	0.585562	-0.188725	2.041312
120.711209	708.352567	0.590566	-0.188796	2.045593
121.021296	714.349772	0.595571	-0.188856	2.049837
121.483487	720.370904	0.600576	-0.188944	2.054124
121.782842	726.383645	0.605581	-0.189002	2.058358
122.270947	732.389141	0.610586	-0.189095	2.062623
122.569766	738.414201	0.615590	-0.189152	2.066848
122.965227	744.411655	0.620595	-0.189228	2.071068
123.268327	750.423685	0.625600	-0.189286	2.075268
123.490283	756.459947	0.630605	-0.189329	2.079457
123.615540	762.488795	0.635610	-0.189354	2.083611
124.104001	768.460506	0.640614	-0.189447	2.087800
124.265855	774.493892	0.645619	-0.189479	2.091948
124.701144	780.491600	0.650624	-0.189562	2.096127
124.930430	786.489782	0.655629	-0.189607	2.100250
125.276457	792.516862	0.660634	-0.189673	2.104411
125.512186	798.518539	0.665638	-0.189719	2.108522
126.018283	804.522507	0.670643	-0.189816	2.112687
126.334162	810.543308	0.675648	-0.189876	2.116812
126.654627	816.556021	0.680653	-0.189938	2.120925
126.981534	822.572495	0.685658	-0.190001	2.125034
127.351215	828.562728	0.690662	-0.190072	2.129127
127.528568	834.593540	0.695667	-0.190106	2.133196
128.088111	840.600548	0.700672	-0.190213	2.137327
128.232718	846.622549	0.705677	-0.190242	2.141367
128.616534	852.618746	0.710682	-0.190315	2.145436
128.589007	858.665606	0.715686	-0.190311	2.149439
128.999983	864.647136	0.720691	-0.190390	2.153488
129.198878	870.665101	0.725696	-0.190429	2.157507
129.403789	876.694832	0.730701	-0.190469	2.161528
129.718697	882.663030	0.735706	-0.190529	2.165524
130.077193	888.697890	0.740710	-0.190598	2.169567
130.287111	894.715209	0.745715	-0.190639	2.173558
130.760600	900.686146	0.750720	-0.190729	2.177569
130.823941	906.746406	0.755725	-0.190743	2.181541
131.428076	912.689454	0.760730	-0.190857	2.185548
131.736646	918.732901	0.765734	-0.190917	2.189548
132.324288	924.723586	0.770739	-0.191029	2.193567
132.459677	930.796547	0.775744	-0.191056	2.197534
132.728191	936.776080	0.780749	-0.191107	2.201462
132.894133	942.785031	0.785754	-0.191140	2.205380
133.161854	948.814017	0.790758	-0.191192	2.209326
133.497220	954.803581	0.795763	-0.191256	2.213253
133.642519	960.853046	0.800768	-0.191285	2.217172
133.650321	966.841477	0.805773	-0.191288	2.221015
134.200750	972.820541	0.810778	-0.191393	2.224961
134.531410	978.830280	0.815782	-0.191456	2.228873
135.054128	984.847524	0.820787	-0.191556	2.232823
135.160844	990.898819	0.825792	-0.191577	2.236701
135.447972	996.878693	0.830797	-0.191633	2.240564
135.713744	1002.887557	0.835802	-0.191684	2.244434
136.111906	1008.886786	0.840806	-0.191760	2.248319
136.299429	1014.933246	0.845811	-0.191797	2.252183
136.854619	1020.929532	0.850816	-0.191902	2.256086
136.724585	1026.956223	0.855821	-0.191880	2.259858
137.179558	1032.930769	0.860826	-0.191966	2.263712
137.374396	1038.949761	0.865830	-0.192004	2.267534
137.867928	1044.940077	0.870835	-0.192099	2.271394
138.089769	1050.984672	0.875840	-0.192142	2.275224
138.605276	1056.950371	0.880845	-0.192240	2.279060
138.756811	1063.002460	0.885850	-0.192270	2.282867
139.102450	1069.008242	0.890854	-0.192336	2.286680
139.382894	1075.009937	0.895859	-0.192390	2.290470
139.795503	1081.015729	0.900864	-0.192469	2.294283
140.090290	1087.022820	0.905869	-0.192526	2.298067
140.524410	1093.039360	0.910874	-0.192609	2.301879
140.836882	1099.040810	0.915878	-0.192669	2.305650
141.307525	1105.040071	0.920883	-0.192759	2.309446
141.626929	1111.068915	0.925888	-0.192820	2.313223
141.945091	1117.093304	0.930893	-0.192881	2.316990
142.150034	1123.098797	0.935898	-0.192921	2.320718
142.451057	1129.108058	0.940902	-0.192979	2.324460
142.427197	1135.133814	0.945907	-0.192976	2.328142
142.696718	1141.138301	0.950912	-0.193028	2.331864
142.917351	1147.152759	0.955917	-0.193071	2.335576
143.359346	1153.112110	0.960922	-0.193156	2.339292
143.580581	1159.143362	0.965926	-0.193199	2.343003
143.747402	1165.195745	0.970931	-0.193232	2.346709
143.974320	1171.175520	0.975936	-0.193276	2.350377
144.233219	1177.191290	0.980941	-0.193326	2.354068
144.724392	1183.157582	0.985946	-0.193419	2.357769
145.028792	1189.208689	0.990950	-0.193478	2.361479
145.110693	1195.230948	0.995955	-0.193495	2.365121
145.407786	1201.224261	1.000960	-0.193552	2.368783
145.688129	1207.223453	1.005965	-0.193606	2.372439
146.033731	1213.258024	1.010970	-0.193672	2.376123
146.122526	1219.257010	1.015974	-0.193691	2.379731
146.384773	1225.257806	1.020979	-0.193741	2.383367
146.472399	1231.275889	1.025984	-0.193759	2.386975
146.852011	1237.306443	1.030989	-0.193832	2.390641
146.925123	1243.291065	1.035994	-0.193847	2.394215
147.349170	1249.296826	1.040998	-0.193928	2.397863
147.513134	1255.307838	1.046003	-0.193960	2.401459
147.882867	1261.337660	1.051008	-0.194031	2.405101
148.220770	1267.296095	1.056013	-0.194096	2.408688
148.513104	1273.349664	1.061018	-0.194153	2.412318
148.812872	1279.364591	1.066022	-0.194210	2.415920
148.939421	1285.358900	1.071027	-0.194236	2.419472
149.199066	1291.361521	1.076032	-0.194286	2.423049
149.567379	1297.364381	1.081037	-0.194356	2.426642
149.828879	1303.379818	1.086042	-0.194407	2.430216
150.214632	1309.405237	1.091046	-0.194481	2.433814
150.294060	1315.410596	1.096051	-0.194497	2.437338
150.593945	1321.416111	1.101056	-0.194555	2.440898
150.866055	1327.428610	1.106061	-0.194607	2.444451
151.194438	1333.430024	1.111066	-0.194671	2.448003
151.398537	1339.444219	1.116070	-0.194710	2.451535
151.557973	1345.498085	1.121075	-0.194742	2.455076
151.586432	1351.435541	1.126080	-0.194749	2.458519
151.911946	1357.483610	1.131085	-0.194811	2.462078
152.171085	1363.474961	1.136090	-0.194861	2.465586
152.715362	1369.466690	1.141094	-0.194965	2.469142
153.015544	1375.483634	1.146099	-0.195023	2.472662
153.399825	1381.521464	1.151104	-0.195096	2.476205
153.361940	1387.537168	1.156109	-0.195091	2.479652
153.759294	1393.518369	1.161114	-0.195167	2.483154
153.946761	1399.527978	1.166118	-0.195203	2.486630
154.305145	1405.568877	1.171123	-0.195272	2.490149
154.347557	1411.571123	1.176128	-0.195282	2.493584
154.689385	1417.549513	1.181133	-0.195347	2.497055
154.818488	1423.579140	1.186138	-0.195373	2.500511
155.215401	1429.579510	1.191142	-0.195449	2.503995
155.494908	1435.581833	1.196147	-0.195503	2.507454
155.746830	1441.605618	1.201152	-0.195552	2.510915
155.990564	1447.608523	1.206157	-0.195599	2.514358
156.261927	1453.635046	1.211162	-0.195651	2.517815
156.339177	1459.636355	1.216166	-0.195667	2.521217
156.615750	1465.655314	1.221171	-0.195721	2.524661
157.014696	1471.612575	1.226176	-0.195797	2.528087
157.275206	1477.669050	1.231181	-0.195847	2.531540
157.236341	1483.717344	1.236186	-0.195841	2.534929
157.518126	1489.648402	1.241190	-0.195896	2.538306
158.031192	1495.651124	1.246195	-0.195994	2.541759
158.579384	1501.671050	1.251200	-0.196098	2.545224
158.674168	1507.702069	1.256205	-0.196117	2.548609
159.042570	1513.716611	1.261210	-0.196188	2.552029
159.114382	1519.740952	1.266214	-0.196203	2.555398
159.498951	1525.717738	1.271219	-0.196276	2.558790
159.615894	1531.742456	1.276224	-0.196300	2.562158
159.923356	1537.758361	1.281229	-0.196359	2.565550
160.097206	1543.763382	1.286234	-0.196393	2.568908
160.396873	1549.776584	1.291238	-0.196451	2.572288
160.505265	1555.819240	1.296243	-0.196473	2.575646
160.705952	1561.818272	1.301248	-0.196512	2.578992
160.864465	1567.783332	1.306253	-0.196543	2.582308
161.213217	1573.794730	1.311258	-0.196610	2.585678
161.279516	1579.820016	1.316262	-0.196624	2.589002
161.742578	1585.811328	1.321267	-0.196712	2.592372
161.906525	1591.835195	1.326272	-0.196745	2.595703
162.152839	1597.853178	1.331277	-0.196792	2.599041
162.417504	1603.833588	1.336282	-0.196843	2.602358
162.484294	1609.880803	1.341286	-0.196857	2.605672
162.573509	1615.877157	1.346291	-0.196876	2.608959
163.015992	1621.860703	1.351296	-0.196960	2.612295
163.067100	1627.892231	1.356301	-0.196971	2.615586
163.396333	1633.880060	1.361306	-0.197035	2.618896
163.705049	1639.891368	1.366310	-0.197094	2.622212
163.947088	1645.917642	1.371315	-0.197141	2.625519
164.109628	1651.904258	1.376320	-0.197173	2.628788
164.420282	1657.944357	1.381325	-0.197233	2.632107
164.808107	1663.897211	1.386330	-0.197307	2.635387
165.033440	1669.974778	1.391334	-0.197351	2.638703
165.132676	1675.942249	1.396339	-0.197371	2.641935
165.373780	1681.968430	1.401344	-0.197417	2.645217
165.585488	1687.969329	1.406349	-0.197459	2.648478
166.006007	1693.969721	1.411354	-0.197539	2.651768
166.165688	1699.994812	1.416358	-0.197571	2.655025
166.478362	1706.001145	1.421363	-0.197631	2.658293
166.625273	1712.011413	1.426368	-0.197660	2.661531
167.006271	1718.015036	1.431373	-0.197733	2.664800
167.168068	1724.013354	1.436378	-0.197765	2.668027
167.523684	1730.024219	1.441382	-0.197833	2.671288
167.626059	1736.055348	1.446387	-0.197853	2.674514
167.807905	1742.069636	1.451392	-0.197889	2.677740
167.961196	1748.051356	1.456397	-0.197919	2.680940
168.188989	1754.077814	1.461402	-0.197964	2.684173
168.421812	1760.074141	1.466406	-0.198009	2.687386
168.849004	1766.061623	1.471411	-0.198090	2.690623
168.941355	1772.124094	1.476416	-0.198109	2.693841
169.130845	1778.097957	1.481421	-0.198146	2.697024
169.333838	1784.083110	1.486426	-0.198186	2.700211
169.820435	1790.128066	1.491430	-0.198279	2.703472
169.944187	1796.115015	1.496435	-0.198303	2.706640
170.185690	1802.154038	1.501440	-0.198350	2.709850
170.380154	1808.141116	1.506445	-0.198388	2.713022
170.499800	1814.165674	1.511450	-0.198412	2.716197
170.486749	1820.196077	1.516454	-0.198411	2.719350
170.826629	1826.153501	1.521459	-0.198476	2.722519
171.117576	1832.154780	1.526464	-0.198532	2.725699
171.349061	1838.220000	1.531469	-0.198577	2.728898
171.444109	1844.208704	1.536474	-0.198597	2.732033
171.734023	1850.204804	1.541478	-0.198653	2.735198
171.947496	1856.207601	1.546483	-0.198694	2.738352
172.252360	1862.222364	1.551488	-0.198753	2.741522
172.405839	1868.219882	1.556493	-0.198783	2.744656
172.699261	1874.236721	1.561498	-0.198840	2.747818
172.943406	1880.243862	1.566502	-0.198887	2.750964
173.220494	1886.266644	1.571507	-0.198940	2.754119
173.373341	1892.269984	1.576512	-0.198971	2.757241
173.670211	1898.274715	1.581517	-0.199028	2.760383
173.625958	1904.308849	1.586522	-0.199021	2.763482
174.038627	1910.268239	1.591526	-0.199100	2.766612
174.158569	1916.305101	1.596531	-0.199124	2.769732
174.528645	1922.312249	1.601536	-0.199195	2.772873
174.555878	1928.311567	1.606541	-0.199201	2.775951
174.816633	1934.339925	1.611546	-0.199252	2.779078
174.974701	1940.326693	1.616550	-0.199283	2.782165
175.305478	1946.326631	1.621555	-0.199346	2.785281
175.490208	1952.361079	1.626560	-0.199383	2.788389
175.899617	1958.348343	1.631565	-0.199461	2.791504
175.949699	1964.369621	1.636570	-0.199472	2.794577
176.191863	1970.380619	1.641574	-0.199519	2.797671
176.303728	1976.391499	1.646579	-0.199541	2.800741
176.706248	1982.398490	1.651584	-0.199618	2.803852
176.746891	1988.401434	1.656589	-0.199627	2.806900
177.079536	1994.403928	1.661594	-0.199691	2.809990
177.122197	2000.454089	1.666598	-0.199701	2.813056
177.455533	2006.406234	1.671603	-0.199765	2.816114
177.551544	2012.452816	1.676608	-0.199784	2.819180
177.792897	2018.448171	1.681613	-0.199831	2.822239
178.067657	2024.422654	1.686618	-0.199884	2.825289
178.354481	2030.475256	1.691622	-0.199939	2.828377
178.691227	2036.443636	1.696627	-0.200004	2.831427
178.759257	2042.496550	1.701632	-0.200018	2.834475
178.912833	2048.498899	1.706637	-0.200049	2.837508
179.108120	2054.492619	1.711642	-0.200087	2.840539
179.365057	2060.498526	1.716646	-0.200136	2.843582
179.773731	2066.491302	1.721651	-0.200215	2.846639
179.906160	2072.521895	1.726656	-0.200241	2.849669
180.068108	2078.563211	1.731661	-0.200273	2.852706
180.207717	2084.511216	1.736666	-0.200301	2.855689
180.416365	2090.545726	1.741670	-0.200341	2.858723
180.630144	2096.553178	1.746675	-0.200383	2.861741
180.914964	2102.548166	1.751680	-0.200438	2.864761
181.100737	2108.580825	1.756685	-0.200474	2.867780
181.290490	2114.591653	1.761690	-0.200511	2.870787
181.442534	2120.573573	1.766694	-0.200541	2.873770
181.733127	2126.606594	1.771699	-0.200597	2.876796
181.819650	2132.593797	1.776704	-0.200615	2.879766
181.997606	2138.639473	1.781709	-0.200650	2.882776
182.043901	2144.615227	1.786714	-0.200660	2.885728
182.363542	2150.621487	1.791718	-0.200721	2.888733
182.493186	2156.635438	1.796723	-0.200747	2.891710
182.659304	2162.668230	1.801728	-0.200780	2.894698
182.994484	2168.641318	1.806733	-0.200844	2.897680
183.242560	2174.663477	1.811738	-0.200892	2.900669
183.367750	2180.663824	1.816742	-0.200917	2.903626
183.734193	2186.665699	1.821747	-0.200988	2.906617
183.772316	2192.686743	1.826752	-0.200996	2.909566
184.207991	2198.707437	1.831757	-0.201079	2.912569
184.270296	2204.685659	1.836762	-0.201093	2.915495
184.425472	2210.736363	1.841766	-0.201123	2.918466
184.665310	2216.697436	1.846771	-0.201170	2.921403
184.888109	2222.724985	1.851776	-0.201213	2.924366
184.942030	2228.753294	1.856781	-0.201225	2.927303
185.335222	2234.736610	1.861786	-0.201300	2.930264
185.566674	2240.748066	1.866790	-0.201345	2.933212
185.926481	2246.734533	1.871795	-0.201414	2.936164
186.094246	2252.781257	1.876800	-0.201447	2.939114
186.309186	2258.775520	1.881805	-0.201489	2.942042
186.442387	2264.773056	1.886810	-0.201515	2.944957
186.681077	2270.815157	1.891814	-0.201561	2.947906
186.799351	2276.776770	1.896819	-0.201585	2.950796
187.094119	2282.798239	1.901824	-0.201642	2.953738
187.202315	2288.831311	1.906829	-0.201664	2.956655
187.551717	2294.822847	1.911834	-0.201731	2.959584
187.483233	2300.857991	1.916838	-0.201719	2.962471
187.656088	2306.829359	1.921843	-0.201753	2.965359
187.986222	2312.844140	1.926848	-0.201817	2.968287
188.233262	2318.862924	1.931853	-0.201864	2.971203
188.324043	2324.854992	1.936858	-0.201883	2.974081
188.536846	2330.892662	1.941862	-0.201924	2.976995
188.624533	2336.864728	1.946867	-0.201942	2.979857
188.986666	2342.901672	1.951872	-0.202012	2.982786
189.020575	2348.885655	1.956877	-0.202020	2.985641
189.070732	2354.928355	1.961882	-0.202031	2.988523
189.174305	2360.919101	1.966886	-0.202051	2.991386
189.526309	2366.908801	1.971891	-0.202119	2.994279
